*RAS_DATA_START
*RAS_HEADER_START
*DISP_FMT_X "%.2f"
*DISP_FMT_Y "%.0f"
*DISP_FULLSCALE "39060.0000000000"
*DISP_LINE_COLOR "255.0000000000"
*DISP_LINE_STYLE "0.0000000000"
*DISP_LINE_WIDTH "0.2500000000"
*DISP_NOTE "Collected Data-28"
*DISP_OFFSET_Y "0.0000000000"
*DISP_PEAKSEARCH_UNIT_Y "cps"
*DISP_RANGE_BOTTOM "0.0000000000"
*DISP_RANGE_LEFT "3.0000000000"
*DISP_RANGE_LOGCUTOFF "0.0100000000"
*DISP_RANGE_RIGHT "90.0000000000"
*DISP_RANGE_TOP "39060.0000000000"
*DISP_SCALE_MODE_Y "0.0000000000"
*DISP_TAB_NAME "Theta/2-Theta"
*DISP_TITLE_Y "Intensity"
*DISP_UNIT_Y "cps"
*DISP_WINDOW_NAME "MSG_MACROENGINE"
*FILE_COMMENT " "
*FILE_MD5 ""
*FILE_MEMO " "
*FILE_OPERATOR "Administrator"
*FILE_SAMPLE " "
*FILE_TYPE "RAS_RAW"
*FILE_USERGROUP "System Manager"
*FILE_VERSION "1.0000000000"
*HW_ATTACHMENT_ID "ATT1031"
*HW_ATTACHMENT_NAME "6サンプルチェンジャ|ASC-6"
*HW_COUNTER_ID-0 "CUT0025"
*HW_COUNTER_ID-1 "CUT0020"
*HW_COUNTER_ID-2 "CUT0020"
*HW_COUNTER_ID-3 "CMC0021"
*HW_COUNTER_NAME-0 "D/teX Ultra|D/teX Ultra"
*HW_COUNTER_NAME-1 "None|None"
*HW_COUNTER_NAME-2 "None|None"
*HW_COUNTER_NAME-3 "検出器モノクロメータ|Detector monochromator"
*HW_COUNTER_SELECT_NAME "D/teX Ultra|D/teX Ultra"
*HW_GONIOMETER_ID "GON0070"
*HW_GONIOMETER_NAME "MiniFlex 300/600|MiniFlex 300/600"
*HW_GONIOMETER_RADIUS-0 "79.0"
*HW_GONIOMETER_RADIUS-1 "91.5"
*HW_GONIOMETER_RADIUS-2 "150.0"
*HW_GONIOMETER_RADIUS-3 "0"
*HW_GONIOMETER_RADIUS-4 "103.4"
*HW_GONIOMETER_RADIUS-5 "150.0"
*HW_GONIOMETER_RADIUS-6 "46.6"
*HW_GONIOMETER_RADIUS-7 "160.0"
*HW_I_OPT_ID-0 "ISL0021"
*HW_I_OPT_ID-1 "ISO0021"
*HW_I_OPT_NAME-0 "発散スリット|Divergence slit"
*HW_I_OPT_NAME-1 "入射平行スリット|Incident parallel slit"
*HW_R_ATTENUATER_AUTOMODE "0"
*HW_R_OPT_ID-0 "RSS0021"
*HW_R_OPT_ID-1 "RSO0021"
*HW_R_OPT_ID-2 "RRS0021"
*HW_R_OPT_NAME-0 "散乱スリット|Scattering slit"
*HW_R_OPT_NAME-1 "受光平行スリット|Receiving soller slit"
*HW_R_OPT_NAME-2 "受光スリット|Receiving slit"
*HW_SAMPLE_HOLDER_ID "SMP0000"
*HW_SAMPLE_HOLDER_NAME "無し|None"
*HW_XG_CURRENT_MAX "15"
*HW_XG_CURRENT_MIN "2"
*HW_XG_CURRENT_RESOLUTION "1"
*HW_XG_CURRENT_UNIT "mA"
*HW_XG_FOCUS "1mm x 10mm"
*HW_XG_FOCUS_TYPE "Normal"
*HW_XG_ID ""
*HW_XG_NAME "300W/600W 封入管-B|300W/600W Sealed tube-B"
*HW_XG_TARGET_ATOMIC_NUMBER "29.0000000000"
*HW_XG_TARGET_NAME "Cu"
*HW_XG_TYPE "Hermetic"
*HW_XG_VOLTAGE_MAX "40"
*HW_XG_VOLTAGE_MIN "20"
*HW_XG_VOLTAGE_RESOLUTION "1"
*HW_XG_VOLTAGE_UNIT "kV"
*HW_XG_WATT_MAX "0.600"
*HW_XG_WATT_UNIT "kW"
*HW_XG_WAVE_LENGTH_ALPHA1 "1.540593"
*HW_XG_WAVE_LENGTH_ALPHA2 "1.544414"
*HW_XG_WAVE_LENGTH_BETA "1.392250"
*MEAS_COND_AXIS_NAME-0 "Theta/2-Theta"
*MEAS_COND_AXIS_NAME-1 "Spin"
*MEAS_COND_AXIS_NAME-2 "Change"
*MEAS_COND_AXIS_NAME-3 "Soller(inc.)"
*MEAS_COND_AXIS_NAME-4 "IHS"
*MEAS_COND_AXIS_NAME-5 "DS"
*MEAS_COND_AXIS_NAME-6 "SS"
*MEAS_COND_AXIS_NAME-7 "Soller(rec.)"
*MEAS_COND_AXIS_NAME-8 "RS"
*MEAS_COND_AXIS_NAME-9 "Filter"
*MEAS_COND_AXIS_NAME-10 "Monochromator"
*MEAS_COND_AXIS_NAME-11 "PHA"
*MEAS_COND_AXIS_NAME_INTERNAL-0 "TwoThetaTheta"
*MEAS_COND_AXIS_NAME_INTERNAL-1 "Spin"
*MEAS_COND_AXIS_NAME_INTERNAL-2 "Change"
*MEAS_COND_AXIS_NAME_INTERNAL-3 "IncidentSollerSlit"
*MEAS_COND_AXIS_NAME_INTERNAL-4 "IncidentAxdSlit"
*MEAS_COND_AXIS_NAME_INTERNAL-5 "IncidentSlitBox"
*MEAS_COND_AXIS_NAME_INTERNAL-6 "ReceivingSlitBox1"
*MEAS_COND_AXIS_NAME_INTERNAL-7 "ReceivingSollerSlit"
*MEAS_COND_AXIS_NAME_INTERNAL-8 "ReceivingSlitBox2"
*MEAS_COND_AXIS_NAME_INTERNAL-9 "Filter"
*MEAS_COND_AXIS_NAME_INTERNAL-10 "CounterMonochromator"
*MEAS_COND_AXIS_NAME_INTERNAL-11 "PHA"
*MEAS_COND_AXIS_NAME_MAGICNO-0 "268632064.0000000000"
*MEAS_COND_AXIS_NAME_MAGICNO-1 "16842752.0000000000"
*MEAS_COND_AXIS_NAME_MAGICNO-2 "16842752.0000000000"
*MEAS_COND_AXIS_NAME_MAGICNO-3 "20971521.0000000000"
*MEAS_COND_AXIS_NAME_MAGICNO-4 "22020097.0000000000"
*MEAS_COND_AXIS_NAME_MAGICNO-5 "22020097.0000000000"
*MEAS_COND_AXIS_NAME_MAGICNO-6 "23068673.0000000000"
*MEAS_COND_AXIS_NAME_MAGICNO-7 "20971521.0000000000"
*MEAS_COND_AXIS_NAME_MAGICNO-8 "23068673.0000000000"
*MEAS_COND_AXIS_NAME_MAGICNO-9 "20971521.0000000000"
*MEAS_COND_AXIS_NAME_MAGICNO-10 "20971521.0000000000"
*MEAS_COND_AXIS_NAME_MAGICNO-11 "0.0000000000"
*MEAS_COND_AXIS_OFFSET-0 "0.0000000000"
*MEAS_COND_AXIS_OFFSET-1 "-"
*MEAS_COND_AXIS_OFFSET-2 "-"
*MEAS_COND_AXIS_OFFSET-3 "-"
*MEAS_COND_AXIS_OFFSET-4 "-"
*MEAS_COND_AXIS_OFFSET-5 "-"
*MEAS_COND_AXIS_OFFSET-6 "-"
*MEAS_COND_AXIS_OFFSET-7 "-"
*MEAS_COND_AXIS_OFFSET-8 "-"
*MEAS_COND_AXIS_OFFSET-9 "-"
*MEAS_COND_AXIS_OFFSET-10 "-"
*MEAS_COND_AXIS_OFFSET-11 "-"
*MEAS_COND_AXIS_POSITION-0 "10.0000000000"
*MEAS_COND_AXIS_POSITION-1 "1.0000000000"
*MEAS_COND_AXIS_POSITION-2 "4.0000000000"
*MEAS_COND_AXIS_POSITION-3 "5.0deg"
*MEAS_COND_AXIS_POSITION-4 "10.0mm"
*MEAS_COND_AXIS_POSITION-5 "1.250deg"
*MEAS_COND_AXIS_POSITION-6 "13.0mm"
*MEAS_COND_AXIS_POSITION-7 "5.0deg"
*MEAS_COND_AXIS_POSITION-8 "13.0mm"
*MEAS_COND_AXIS_POSITION-9 "K-beta(x1)"
*MEAS_COND_AXIS_POSITION-10 "None"
*MEAS_COND_AXIS_POSITION-11 "37.0000000000"
*MEAS_COND_AXIS_UNIT-0 "deg"
*MEAS_COND_AXIS_UNIT-1 ""
*MEAS_COND_AXIS_UNIT-2 ""
*MEAS_COND_AXIS_UNIT-3 ""
*MEAS_COND_AXIS_UNIT-4 ""
*MEAS_COND_AXIS_UNIT-5 ""
*MEAS_COND_AXIS_UNIT-6 ""
*MEAS_COND_AXIS_UNIT-7 ""
*MEAS_COND_AXIS_UNIT-8 ""
*MEAS_COND_AXIS_UNIT-9 ""
*MEAS_COND_AXIS_UNIT-10 ""
*MEAS_COND_AXIS_UNIT-11 "div"
*MEAS_COND_COUNTER_CNTLOSS_CORR "0.0000000000"
*MEAS_COND_COUNTER_PHABASE "37.0000000000"
*MEAS_COND_COUNTER_PHAWINDOW "17.0000000000"
*MEAS_COND_COUNTER_PHA_UNIT "div"
*MEAS_COND_COUNTER_TAUDIFF "0.2500000000"
*MEAS_COND_COUNTER_TAUINT "0.7500000000"
*MEAS_COND_IRRADIATION_MODE "OFF"
*MEAS_COND_IRRADIATION_WIDTH ""
*MEAS_COND_OPT_ATTR " "
*MEAS_COND_OPT_NAME ""
*MEAS_COND_UNSYMMETRIC_MODE "OFF"
*MEAS_COND_XG_CURRENT "15.0000000000"
*MEAS_COND_XG_VOLTAGE "40.0000000000"
*MEAS_COND_XG_WAVE_TYPE "Ka"
*MEAS_DATA_COUNT "4351.0000000000"
*MEAS_SCAN_AXIS_X "Theta/2-Theta"
*MEAS_SCAN_AXIS_X_INTERNAL "TwoThetaTheta"
*MEAS_SCAN_END_TIME "10/06/25 19:49:22"
*MEAS_SCAN_MODE "CONTINUOUS"
*MEAS_SCAN_MONITOR "0"
*MEAS_SCAN_RESOLUTION_X "0.005"
*MEAS_SCAN_SPEED "10.000"
*MEAS_SCAN_SPEED_UNIT "deg/min"
*MEAS_SCAN_START "3.0000000000"
*MEAS_SCAN_START_TIME "10/06/25 19:39:54"
*MEAS_SCAN_STEP "0.0200000000"
*MEAS_SCAN_STOP "90.0000000000"
*MEAS_SCAN_UNIT_X "deg"
*MEAS_SCAN_UNIT_Y "counts"
*SLIT_SYSTEM "0"
*RAS_HEADER_END
*RAS_INT_START
3.000 192.000 1.000
3.020 214.000 1.000
3.040 226.000 1.000
3.060 212.000 1.000
3.080 214.000 1.000
3.100 209.000 1.000
3.120 220.000 1.000
3.140 217.000 1.000
3.160 219.000 1.000
3.180 189.000 1.000
3.200 211.000 1.000
3.220 209.000 1.000
3.240 200.000 1.000
3.260 218.000 1.000
3.280 197.000 1.000
3.300 205.000 1.000
3.320 190.000 1.000
3.340 193.000 1.000
3.360 188.000 1.000
3.380 184.000 1.000
3.400 201.000 1.000
3.420 186.000 1.000
3.440 169.000 1.000
3.460 182.000 1.000
3.480 202.000 1.000
3.500 209.000 1.000
3.520 198.000 1.000
3.540 192.000 1.000
3.560 194.000 1.000
3.580 210.000 1.000
3.600 193.000 1.000
3.620 184.000 1.000
3.640 184.000 1.000
3.660 201.000 1.000
3.680 165.000 1.000
3.700 205.000 1.000
3.720 189.000 1.000
3.740 177.000 1.000
3.760 180.000 1.000
3.780 178.000 1.000
3.800 169.000 1.000
3.820 206.000 1.000
3.840 190.000 1.000
3.860 185.000 1.000
3.880 185.000 1.000
3.900 195.000 1.000
3.920 192.000 1.000
3.940 164.000 1.000
3.960 178.000 1.000
3.980 190.000 1.000
4.000 171.000 1.000
4.020 186.000 1.000
4.040 187.000 1.000
4.060 187.000 1.000
4.080 180.000 1.000
4.100 193.000 1.000
4.120 181.000 1.000
4.140 182.000 1.000
4.160 172.000 1.000
4.180 198.000 1.000
4.200 206.000 1.000
4.220 179.000 1.000
4.240 180.000 1.000
4.260 166.000 1.000
4.280 207.000 1.000
4.300 185.000 1.000
4.320 185.000 1.000
4.340 202.000 1.000
4.360 177.000 1.000
4.380 169.000 1.000
4.400 186.000 1.000
4.420 187.000 1.000
4.440 175.000 1.000
4.460 182.000 1.000
4.480 167.000 1.000
4.500 192.000 1.000
4.520 197.000 1.000
4.540 208.000 1.000
4.560 192.000 1.000
4.580 184.000 1.000
4.600 168.000 1.000
4.620 174.000 1.000
4.640 171.000 1.000
4.660 174.000 1.000
4.680 186.000 1.000
4.700 192.000 1.000
4.720 176.000 1.000
4.740 198.000 1.000
4.760 187.000 1.000
4.780 190.000 1.000
4.800 177.000 1.000
4.820 166.000 1.000
4.840 182.000 1.000
4.860 182.000 1.000
4.880 198.000 1.000
4.900 184.000 1.000
4.920 172.000 1.000
4.940 173.000 1.000
4.960 169.000 1.000
4.980 186.000 1.000
5.000 168.000 1.000
5.020 175.000 1.000
5.040 183.000 1.000
5.060 174.000 1.000
5.080 185.000 1.000
5.100 175.000 1.000
5.120 197.000 1.000
5.140 180.000 1.000
5.160 162.000 1.000
5.180 162.000 1.000
5.200 173.000 1.000
5.220 183.000 1.000
5.240 175.000 1.000
5.260 170.000 1.000
5.280 170.000 1.000
5.300 213.000 1.000
5.320 189.000 1.000
5.340 177.000 1.000
5.360 195.000 1.000
5.380 174.000 1.000
5.400 188.000 1.000
5.420 189.000 1.000
5.440 185.000 1.000
5.460 166.000 1.000
5.480 197.000 1.000
5.500 190.000 1.000
5.520 191.000 1.000
5.540 175.000 1.000
5.560 186.000 1.000
5.580 205.000 1.000
5.600 188.000 1.000
5.620 201.000 1.000
5.640 191.000 1.000
5.660 173.000 1.000
5.680 182.000 1.000
5.700 195.000 1.000
5.720 199.000 1.000
5.740 183.000 1.000
5.760 191.000 1.000
5.780 177.000 1.000
5.800 189.000 1.000
5.820 181.000 1.000
5.840 187.000 1.000
5.860 189.000 1.000
5.880 198.000 1.000
5.900 182.000 1.000
5.920 189.000 1.000
5.940 187.000 1.000
5.960 193.000 1.000
5.980 189.000 1.000
6.000 176.000 1.000
6.020 192.000 1.000
6.040 209.000 1.000
6.060 192.000 1.000
6.080 168.000 1.000
6.100 175.000 1.000
6.120 204.000 1.000
6.140 198.000 1.000
6.160 203.000 1.000
6.180 175.000 1.000
6.200 173.000 1.000
6.220 178.000 1.000
6.240 192.000 1.000
6.260 203.000 1.000
6.280 197.000 1.000
6.300 207.000 1.000
6.320 209.000 1.000
6.340 191.000 1.000
6.360 187.000 1.000
6.380 194.000 1.000
6.400 191.000 1.000
6.420 200.000 1.000
6.440 197.000 1.000
6.460 205.000 1.000
6.480 201.000 1.000
6.500 215.000 1.000
6.520 188.000 1.000
6.540 205.000 1.000
6.560 209.000 1.000
6.580 205.000 1.000
6.600 189.000 1.000
6.620 191.000 1.000
6.640 213.000 1.000
6.660 199.000 1.000
6.680 197.000 1.000
6.700 193.000 1.000
6.720 196.000 1.000
6.740 207.000 1.000
6.760 229.000 1.000
6.780 213.000 1.000
6.800 233.000 1.000
6.820 209.000 1.000
6.840 225.000 1.000
6.860 210.000 1.000
6.880 209.000 1.000
6.900 224.000 1.000
6.920 221.000 1.000
6.940 210.000 1.000
6.960 215.000 1.000
6.980 219.000 1.000
7.000 222.000 1.000
7.020 232.000 1.000
7.040 224.000 1.000
7.060 206.000 1.000
7.080 222.000 1.000
7.100 242.000 1.000
7.120 198.000 1.000
7.140 214.000 1.000
7.160 228.000 1.000
7.180 214.000 1.000
7.200 221.000 1.000
7.220 224.000 1.000
7.240 239.000 1.000
7.260 228.000 1.000
7.280 208.000 1.000
7.300 231.000 1.000
7.320 254.000 1.000
7.340 228.000 1.000
7.360 239.000 1.000
7.380 231.000 1.000
7.400 238.000 1.000
7.420 206.000 1.000
7.440 214.000 1.000
7.460 256.000 1.000
7.480 241.000 1.000
7.500 245.000 1.000
7.520 233.000 1.000
7.540 244.000 1.000
7.560 248.000 1.000
7.580 233.000 1.000
7.600 247.000 1.000
7.620 258.000 1.000
7.640 225.000 1.000
7.660 234.000 1.000
7.680 230.000 1.000
7.700 240.000 1.000
7.720 247.000 1.000
7.740 234.000 1.000
7.760 239.000 1.000
7.780 252.000 1.000
7.800 254.000 1.000
7.820 225.000 1.000
7.840 229.000 1.000
7.860 251.000 1.000
7.880 229.000 1.000
7.900 248.000 1.000
7.920 241.000 1.000
7.940 219.000 1.000
7.960 226.000 1.000
7.980 254.000 1.000
8.000 247.000 1.000
8.020 234.000 1.000
8.040 256.000 1.000
8.060 258.000 1.000
8.080 243.000 1.000
8.100 246.000 1.000
8.120 252.000 1.000
8.140 238.000 1.000
8.160 250.000 1.000
8.180 241.000 1.000
8.200 233.000 1.000
8.220 257.000 1.000
8.240 247.000 1.000
8.260 258.000 1.000
8.280 259.000 1.000
8.300 253.000 1.000
8.320 244.000 1.000
8.340 263.000 1.000
8.360 237.000 1.000
8.380 258.000 1.000
8.400 261.000 1.000
8.420 246.000 1.000
8.440 232.000 1.000
8.460 258.000 1.000
8.480 275.000 1.000
8.500 253.000 1.000
8.520 245.000 1.000
8.540 244.000 1.000
8.560 283.000 1.000
8.580 258.000 1.000
8.600 279.000 1.000
8.620 277.000 1.000
8.640 269.000 1.000
8.660 240.000 1.000
8.680 264.000 1.000
8.700 221.000 1.000
8.720 266.000 1.000
8.740 249.000 1.000
8.760 284.000 1.000
8.780 291.000 1.000
8.800 277.000 1.000
8.820 256.000 1.000
8.840 285.000 1.000
8.860 288.000 1.000
8.880 283.000 1.000
8.900 281.000 1.000
8.920 307.000 1.000
8.940 267.000 1.000
8.960 272.000 1.000
8.980 288.000 1.000
9.000 297.000 1.000
9.020 254.000 1.000
9.040 284.000 1.000
9.060 275.000 1.000
9.080 287.000 1.000
9.100 297.000 1.000
9.120 305.000 1.000
9.140 323.000 1.000
9.160 324.000 1.000
9.180 301.000 1.000
9.200 276.000 1.000
9.220 281.000 1.000
9.240 269.000 1.000
9.260 259.000 1.000
9.280 307.000 1.000
9.300 285.000 1.000
9.320 320.000 1.000
9.340 309.000 1.000
9.360 298.000 1.000
9.380 305.000 1.000
9.400 298.000 1.000
9.420 290.000 1.000
9.440 276.000 1.000
9.460 276.000 1.000
9.480 312.000 1.000
9.500 291.000 1.000
9.520 283.000 1.000
9.540 296.000 1.000
9.560 306.000 1.000
9.580 298.000 1.000
9.600 318.000 1.000
9.620 291.000 1.000
9.640 306.000 1.000
9.660 329.000 1.000
9.680 305.000 1.000
9.700 293.000 1.000
9.720 294.000 1.000
9.740 313.000 1.000
9.760 296.000 1.000
9.780 287.000 1.000
9.800 314.000 1.000
9.820 331.000 1.000
9.840 362.000 1.000
9.860 302.000 1.000
9.880 326.000 1.000
9.900 298.000 1.000
9.920 312.000 1.000
9.940 346.000 1.000
9.960 338.000 1.000
9.980 331.000 1.000
10.000 318.000 1.000
10.020 352.000 1.000
10.040 299.000 1.000
10.060 305.000 1.000
10.080 308.000 1.000
10.100 303.000 1.000
10.120 329.000 1.000
10.140 322.000 1.000
10.160 300.000 1.000
10.180 351.000 1.000
10.200 344.000 1.000
10.220 367.000 1.000
10.240 371.000 1.000
10.260 310.000 1.000
10.280 318.000 1.000
10.300 331.000 1.000
10.320 294.000 1.000
10.340 317.000 1.000
10.360 329.000 1.000
10.380 335.000 1.000
10.400 332.000 1.000
10.420 324.000 1.000
10.440 317.000 1.000
10.460 321.000 1.000
10.480 345.000 1.000
10.500 333.000 1.000
10.520 344.000 1.000
10.540 352.000 1.000
10.560 343.000 1.000
10.580 341.000 1.000
10.600 326.000 1.000
10.620 347.000 1.000
10.640 336.000 1.000
10.660 346.000 1.000
10.680 332.000 1.000
10.700 331.000 1.000
10.720 341.000 1.000
10.740 346.000 1.000
10.760 364.000 1.000
10.780 349.000 1.000
10.800 334.000 1.000
10.820 370.000 1.000
10.840 347.000 1.000
10.860 335.000 1.000
10.880 362.000 1.000
10.900 348.000 1.000
10.920 334.000 1.000
10.940 339.000 1.000
10.960 336.000 1.000
10.980 352.000 1.000
11.000 346.000 1.000
11.020 329.000 1.000
11.040 334.000 1.000
11.060 359.000 1.000
11.080 355.000 1.000
11.100 328.000 1.000
11.120 340.000 1.000
11.140 359.000 1.000
11.160 346.000 1.000
11.180 345.000 1.000
11.200 360.000 1.000
11.220 327.000 1.000
11.240 351.000 1.000
11.260 350.000 1.000
11.280 339.000 1.000
11.300 356.000 1.000
11.320 359.000 1.000
11.340 365.000 1.000
11.360 361.000 1.000
11.380 370.000 1.000
11.400 361.000 1.000
11.420 345.000 1.000
11.440 363.000 1.000
11.460 341.000 1.000
11.480 383.000 1.000
11.500 369.000 1.000
11.520 366.000 1.000
11.540 340.000 1.000
11.560 332.000 1.000
11.580 356.000 1.000
11.600 365.000 1.000
11.620 397.000 1.000
11.640 387.000 1.000
11.660 365.000 1.000
11.680 383.000 1.000
11.700 379.000 1.000
11.720 379.000 1.000
11.740 363.000 1.000
11.760 380.000 1.000
11.780 351.000 1.000
11.800 361.000 1.000
11.820 364.000 1.000
11.840 360.000 1.000
11.860 364.000 1.000
11.880 352.000 1.000
11.900 371.000 1.000
11.920 395.000 1.000
11.940 393.000 1.000
11.960 368.000 1.000
11.980 347.000 1.000
12.000 379.000 1.000
12.020 403.000 1.000
12.040 401.000 1.000
12.060 432.000 1.000
12.080 399.000 1.000
12.100 417.000 1.000
12.120 398.000 1.000
12.140 361.000 1.000
12.160 401.000 1.000
12.180 413.000 1.000
12.200 398.000 1.000
12.220 416.000 1.000
12.240 388.000 1.000
12.260 377.000 1.000
12.280 383.000 1.000
12.300 392.000 1.000
12.320 389.000 1.000
12.340 391.000 1.000
12.360 407.000 1.000
12.380 402.000 1.000
12.400 390.000 1.000
12.420 381.000 1.000
12.440 387.000 1.000
12.460 419.000 1.000
12.480 391.000 1.000
12.500 410.000 1.000
12.520 412.000 1.000
12.540 422.000 1.000
12.560 438.000 1.000
12.580 428.000 1.000
12.600 430.000 1.000
12.620 444.000 1.000
12.640 451.000 1.000
12.660 435.000 1.000
12.680 401.000 1.000
12.700 427.000 1.000
12.720 403.000 1.000
12.740 395.000 1.000
12.760 432.000 1.000
12.780 416.000 1.000
12.800 412.000 1.000
12.820 395.000 1.000
12.840 399.000 1.000
12.860 392.000 1.000
12.880 369.000 1.000
12.900 389.000 1.000
12.920 404.000 1.000
12.940 403.000 1.000
12.960 398.000 1.000
12.980 418.000 1.000
13.000 424.000 1.000
13.020 389.000 1.000
13.040 396.000 1.000
13.060 411.000 1.000
13.080 439.000 1.000
13.100 426.000 1.000
13.120 415.000 1.000
13.140 431.000 1.000
13.160 417.000 1.000
13.180 402.000 1.000
13.200 436.000 1.000
13.220 419.000 1.000
13.240 405.000 1.000
13.260 414.000 1.000
13.280 437.000 1.000
13.300 417.000 1.000
13.320 411.000 1.000
13.340 399.000 1.000
13.360 399.000 1.000
13.380 410.000 1.000
13.400 431.000 1.000
13.420 432.000 1.000
13.440 438.000 1.000
13.460 450.000 1.000
13.480 430.000 1.000
13.500 415.000 1.000
13.520 419.000 1.000
13.540 413.000 1.000
13.560 418.000 1.000
13.580 426.000 1.000
13.600 467.000 1.000
13.620 435.000 1.000
13.640 403.000 1.000
13.660 445.000 1.000
13.680 428.000 1.000
13.700 427.000 1.000
13.720 439.000 1.000
13.740 416.000 1.000
13.760 435.000 1.000
13.780 433.000 1.000
13.800 424.000 1.000
13.820 447.000 1.000
13.840 445.000 1.000
13.860 427.000 1.000
13.880 428.000 1.000
13.900 442.000 1.000
13.920 449.000 1.000
13.940 440.000 1.000
13.960 399.000 1.000
13.980 420.000 1.000
14.000 421.000 1.000
14.020 444.000 1.000
14.040 427.000 1.000
14.060 424.000 1.000
14.080 438.000 1.000
14.100 477.000 1.000
14.120 483.000 1.000
14.140 457.000 1.000
14.160 427.000 1.000
14.180 434.000 1.000
14.200 493.000 1.000
14.220 444.000 1.000
14.240 474.000 1.000
14.260 476.000 1.000
14.280 469.000 1.000
14.300 482.000 1.000
14.320 556.000 1.000
14.340 524.000 1.000
14.360 528.000 1.000
14.380 549.000 1.000
14.400 553.000 1.000
14.420 571.000 1.000
14.440 598.000 1.000
14.460 577.000 1.000
14.480 508.000 1.000
14.500 513.000 1.000
14.520 487.000 1.000
14.540 455.000 1.000
14.560 490.000 1.000
14.580 520.000 1.000
14.600 480.000 1.000
14.620 464.000 1.000
14.640 463.000 1.000
14.660 476.000 1.000
14.680 479.000 1.000
14.700 439.000 1.000
14.720 455.000 1.000
14.740 449.000 1.000
14.760 445.000 1.000
14.780 452.000 1.000
14.800 463.000 1.000
14.820 453.000 1.000
14.840 478.000 1.000
14.860 460.000 1.000
14.880 433.000 1.000
14.900 434.000 1.000
14.920 451.000 1.000
14.940 502.000 1.000
14.960 476.000 1.000
14.980 464.000 1.000
15.000 467.000 1.000
15.020 447.000 1.000
15.040 489.000 1.000
15.060 492.000 1.000
15.080 468.000 1.000
15.100 496.000 1.000
15.120 502.000 1.000
15.140 486.000 1.000
15.160 485.000 1.000
15.180 501.000 1.000
15.200 513.000 1.000
15.220 542.000 1.000
15.240 575.000 1.000
15.260 569.000 1.000
15.280 613.000 1.000
15.300 599.000 1.000
15.320 637.000 1.000
15.340 681.000 1.000
15.360 691.000 1.000
15.380 705.000 1.000
15.400 749.000 1.000
15.420 746.000 1.000
15.440 759.000 1.000
15.460 769.000 1.000
15.480 737.000 1.000
15.500 674.000 1.000
15.520 630.000 1.000
15.540 582.000 1.000
15.560 541.000 1.000
15.580 533.000 1.000
15.600 472.000 1.000
15.620 489.000 1.000
15.640 466.000 1.000
15.660 483.000 1.000
15.680 498.000 1.000
15.700 511.000 1.000
15.720 469.000 1.000
15.740 468.000 1.000
15.760 474.000 1.000
15.780 482.000 1.000
15.800 449.000 1.000
15.820 421.000 1.000
15.840 482.000 1.000
15.860 440.000 1.000
15.880 477.000 1.000
15.900 477.000 1.000
15.920 467.000 1.000
15.940 462.000 1.000
15.960 439.000 1.000
15.980 479.000 1.000
16.000 446.000 1.000
16.020 408.000 1.000
16.040 458.000 1.000
16.060 406.000 1.000
16.080 477.000 1.000
16.100 475.000 1.000
16.120 466.000 1.000
16.140 435.000 1.000
16.160 440.000 1.000
16.180 444.000 1.000
16.200 471.000 1.000
16.220 451.000 1.000
16.240 430.000 1.000
16.260 488.000 1.000
16.280 498.000 1.000
16.300 462.000 1.000
16.320 454.000 1.000
16.340 427.000 1.000
16.360 463.000 1.000
16.380 432.000 1.000
16.400 482.000 1.000
16.420 496.000 1.000
16.440 501.000 1.000
16.460 456.000 1.000
16.480 468.000 1.000
16.500 477.000 1.000
16.520 448.000 1.000
16.540 493.000 1.000
16.560 485.000 1.000
16.580 471.000 1.000
16.600 503.000 1.000
16.620 489.000 1.000
16.640 491.000 1.000
16.660 515.000 1.000
16.680 524.000 1.000
16.700 510.000 1.000
16.720 494.000 1.000
16.740 483.000 1.000
16.760 502.000 1.000
16.780 467.000 1.000
16.800 455.000 1.000
16.820 482.000 1.000
16.840 450.000 1.000
16.860 442.000 1.000
16.880 469.000 1.000
16.900 480.000 1.000
16.920 427.000 1.000
16.940 473.000 1.000
16.960 445.000 1.000
16.980 503.000 1.000
17.000 458.000 1.000
17.020 469.000 1.000
17.040 469.000 1.000
17.060 494.000 1.000
17.080 483.000 1.000
17.100 449.000 1.000
17.120 456.000 1.000
17.140 477.000 1.000
17.160 491.000 1.000
17.180 476.000 1.000
17.200 456.000 1.000
17.220 477.000 1.000
17.240 502.000 1.000
17.260 474.000 1.000
17.280 469.000 1.000
17.300 486.000 1.000
17.320 461.000 1.000
17.340 505.000 1.000
17.360 477.000 1.000
17.380 516.000 1.000
17.400 513.000 1.000
17.420 513.000 1.000
17.440 539.000 1.000
17.460 561.000 1.000
17.480 509.000 1.000
17.500 518.000 1.000
17.520 537.000 1.000
17.540 506.000 1.000
17.560 444.000 1.000
17.580 432.000 1.000
17.600 450.000 1.000
17.620 474.000 1.000
17.640 513.000 1.000
17.660 483.000 1.000
17.680 478.000 1.000
17.700 472.000 1.000
17.720 473.000 1.000
17.740 496.000 1.000
17.760 463.000 1.000
17.780 522.000 1.000
17.800 479.000 1.000
17.820 489.000 1.000
17.840 492.000 1.000
17.860 505.000 1.000
17.880 526.000 1.000
17.900 586.000 1.000
17.920 592.000 1.000
17.940 609.000 1.000
17.960 604.000 1.000
17.980 585.000 1.000
18.000 599.000 1.000
18.020 581.000 1.000
18.040 582.000 1.000
18.060 590.000 1.000
18.080 590.000 1.000
18.100 573.000 1.000
18.120 531.000 1.000
18.140 512.000 1.000
18.160 501.000 1.000
18.180 520.000 1.000
18.200 494.000 1.000
18.220 506.000 1.000
18.240 535.000 1.000
18.260 575.000 1.000
18.280 595.000 1.000
18.300 587.000 1.000
18.320 562.000 1.000
18.340 526.000 1.000
18.360 510.000 1.000
18.380 521.000 1.000
18.400 500.000 1.000
18.420 502.000 1.000
18.440 543.000 1.000
18.460 546.000 1.000
18.480 551.000 1.000
18.500 525.000 1.000
18.520 526.000 1.000
18.540 527.000 1.000
18.560 531.000 1.000
18.580 520.000 1.000
18.600 549.000 1.000
18.620 534.000 1.000
18.640 524.000 1.000
18.660 493.000 1.000
18.680 484.000 1.000
18.700 509.000 1.000
18.720 461.000 1.000
18.740 480.000 1.000
18.760 478.000 1.000
18.780 487.000 1.000
18.800 475.000 1.000
18.820 496.000 1.000
18.840 443.000 1.000
18.860 459.000 1.000
18.880 459.000 1.000
18.900 498.000 1.000
18.920 473.000 1.000
18.940 482.000 1.000
18.960 510.000 1.000
18.980 474.000 1.000
19.000 491.000 1.000
19.020 492.000 1.000
19.040 474.000 1.000
19.060 508.000 1.000
19.080 457.000 1.000
19.100 464.000 1.000
19.120 469.000 1.000
19.140 453.000 1.000
19.160 451.000 1.000
19.180 491.000 1.000
19.200 473.000 1.000
19.220 434.000 1.000
19.240 451.000 1.000
19.260 472.000 1.000
19.280 471.000 1.000
19.300 457.000 1.000
19.320 425.000 1.000
19.340 514.000 1.000
19.360 441.000 1.000
19.380 443.000 1.000
19.400 433.000 1.000
19.420 433.000 1.000
19.440 453.000 1.000
19.460 463.000 1.000
19.480 474.000 1.000
19.500 465.000 1.000
19.520 473.000 1.000
19.540 461.000 1.000
19.560 449.000 1.000
19.580 467.000 1.000
19.600 459.000 1.000
19.620 430.000 1.000
19.640 439.000 1.000
19.660 445.000 1.000
19.680 478.000 1.000
19.700 442.000 1.000
19.720 454.000 1.000
19.740 470.000 1.000
19.760 470.000 1.000
19.780 451.000 1.000
19.800 453.000 1.000
19.820 444.000 1.000
19.840 450.000 1.000
19.860 503.000 1.000
19.880 458.000 1.000
19.900 506.000 1.000
19.920 476.000 1.000
19.940 437.000 1.000
19.960 452.000 1.000
19.980 473.000 1.000
20.000 468.000 1.000
20.020 448.000 1.000
20.040 428.000 1.000
20.060 466.000 1.000
20.080 480.000 1.000
20.100 460.000 1.000
20.120 461.000 1.000
20.140 441.000 1.000
20.160 465.000 1.000
20.180 447.000 1.000
20.200 457.000 1.000
20.220 425.000 1.000
20.240 456.000 1.000
20.260 470.000 1.000
20.280 463.000 1.000
20.300 458.000 1.000
20.320 444.000 1.000
20.340 473.000 1.000
20.360 473.000 1.000
20.380 478.000 1.000
20.400 474.000 1.000
20.420 482.000 1.000
20.440 461.000 1.000
20.460 448.000 1.000
20.480 443.000 1.000
20.500 443.000 1.000
20.520 437.000 1.000
20.540 464.000 1.000
20.560 423.000 1.000
20.580 445.000 1.000
20.600 461.000 1.000
20.620 465.000 1.000
20.640 466.000 1.000
20.660 449.000 1.000
20.680 482.000 1.000
20.700 496.000 1.000
20.720 459.000 1.000
20.740 448.000 1.000
20.760 465.000 1.000
20.780 456.000 1.000
20.800 460.000 1.000
20.820 453.000 1.000
20.840 446.000 1.000
20.860 496.000 1.000
20.880 516.000 1.000
20.900 492.000 1.000
20.920 480.000 1.000
20.940 520.000 1.000
20.960 510.000 1.000
20.980 480.000 1.000
21.000 535.000 1.000
21.020 547.000 1.000
21.040 504.000 1.000
21.060 534.000 1.000
21.080 481.000 1.000
21.100 512.000 1.000
21.120 468.000 1.000
21.140 487.000 1.000
21.160 475.000 1.000
21.180 492.000 1.000
21.200 489.000 1.000
21.220 505.000 1.000
21.240 538.000 1.000
21.260 502.000 1.000
21.280 511.000 1.000
21.300 505.000 1.000
21.320 490.000 1.000
21.340 515.000 1.000
21.360 492.000 1.000
21.380 498.000 1.000
21.400 521.000 1.000
21.420 489.000 1.000
21.440 511.000 1.000
21.460 515.000 1.000
21.480 516.000 1.000
21.500 484.000 1.000
21.520 484.000 1.000
21.540 528.000 1.000
21.560 517.000 1.000
21.580 492.000 1.000
21.600 501.000 1.000
21.620 483.000 1.000
21.640 513.000 1.000
21.660 507.000 1.000
21.680 469.000 1.000
21.700 465.000 1.000
21.720 463.000 1.000
21.740 484.000 1.000
21.760 475.000 1.000
21.780 495.000 1.000
21.800 460.000 1.000
21.820 463.000 1.000
21.840 489.000 1.000
21.860 498.000 1.000
21.880 526.000 1.000
21.900 528.000 1.000
21.920 535.000 1.000
21.940 547.000 1.000
21.960 546.000 1.000
21.980 566.000 1.000
22.000 543.000 1.000
22.020 577.000 1.000
22.040 591.000 1.000
22.060 624.000 1.000
22.080 579.000 1.000
22.100 634.000 1.000
22.120 640.000 1.000
22.140 677.000 1.000
22.160 663.000 1.000
22.180 664.000 1.000
22.200 659.000 1.000
22.220 639.000 1.000
22.240 654.000 1.000
22.260 575.000 1.000
22.280 580.000 1.000
22.300 550.000 1.000
22.320 559.000 1.000
22.340 568.000 1.000
22.360 548.000 1.000
22.380 522.000 1.000
22.400 540.000 1.000
22.420 519.000 1.000
22.440 552.000 1.000
22.460 563.000 1.000
22.480 560.000 1.000
22.500 584.000 1.000
22.520 577.000 1.000
22.540 511.000 1.000
22.560 557.000 1.000
22.580 599.000 1.000
22.600 588.000 1.000
22.620 576.000 1.000
22.640 584.000 1.000
22.660 560.000 1.000
22.680 575.000 1.000
22.700 568.000 1.000
22.720 529.000 1.000
22.740 525.000 1.000
22.760 524.000 1.000
22.780 463.000 1.000
22.800 463.000 1.000
22.820 504.000 1.000
22.840 520.000 1.000
22.860 500.000 1.000
22.880 483.000 1.000
22.900 499.000 1.000
22.920 501.000 1.000
22.940 492.000 1.000
22.960 503.000 1.000
22.980 514.000 1.000
23.000 518.000 1.000
23.020 501.000 1.000
23.040 505.000 1.000
23.060 505.000 1.000
23.080 536.000 1.000
23.100 535.000 1.000
23.120 546.000 1.000
23.140 590.000 1.000
23.160 572.000 1.000
23.180 557.000 1.000
23.200 560.000 1.000
23.220 544.000 1.000
23.240 526.000 1.000
23.260 515.000 1.000
23.280 556.000 1.000
23.300 569.000 1.000
23.320 538.000 1.000
23.340 561.000 1.000
23.360 582.000 1.000
23.380 609.000 1.000
23.400 617.000 1.000
23.420 617.000 1.000
23.440 633.000 1.000
23.460 665.000 1.000
23.480 711.000 1.000
23.500 713.000 1.000
23.520 812.000 1.000
23.540 833.000 1.000
23.560 964.000 1.000
23.580 1044.000 1.000
23.600 1068.000 1.000
23.620 1061.000 1.000
23.640 1144.000 1.000
23.660 1279.000 1.000
23.680 1236.000 1.000
23.700 1256.000 1.000
23.720 1260.000 1.000
23.740 1193.000 1.000
23.760 1119.000 1.000
23.780 1059.000 1.000
23.800 957.000 1.000
23.820 879.000 1.000
23.840 868.000 1.000
23.860 854.000 1.000
23.880 805.000 1.000
23.900 787.000 1.000
23.920 747.000 1.000
23.940 792.000 1.000
23.960 752.000 1.000
23.980 748.000 1.000
24.000 737.000 1.000
24.020 774.000 1.000
24.040 788.000 1.000
24.060 775.000 1.000
24.080 794.000 1.000
24.100 782.000 1.000
24.120 804.000 1.000
24.140 749.000 1.000
24.160 748.000 1.000
24.180 723.000 1.000
24.200 678.000 1.000
24.220 637.000 1.000
24.240 590.000 1.000
24.260 555.000 1.000
24.280 545.000 1.000
24.300 547.000 1.000
24.320 573.000 1.000
24.340 522.000 1.000
24.360 523.000 1.000
24.380 523.000 1.000
24.400 533.000 1.000
24.420 557.000 1.000
24.440 543.000 1.000
24.460 560.000 1.000
24.480 537.000 1.000
24.500 541.000 1.000
24.520 504.000 1.000
24.540 555.000 1.000
24.560 507.000 1.000
24.580 514.000 1.000
24.600 544.000 1.000
24.620 542.000 1.000
24.640 563.000 1.000
24.660 520.000 1.000
24.680 540.000 1.000
24.700 549.000 1.000
24.720 497.000 1.000
24.740 507.000 1.000
24.760 485.000 1.000
24.780 469.000 1.000
24.800 505.000 1.000
24.820 510.000 1.000
24.840 481.000 1.000
24.860 516.000 1.000
24.880 482.000 1.000
24.900 473.000 1.000
24.920 481.000 1.000
24.940 485.000 1.000
24.960 454.000 1.000
24.980 481.000 1.000
25.000 485.000 1.000
25.020 490.000 1.000
25.040 526.000 1.000
25.060 522.000 1.000
25.080 526.000 1.000
25.100 498.000 1.000
25.120 506.000 1.000
25.140 511.000 1.000
25.160 488.000 1.000
25.180 497.000 1.000
25.200 484.000 1.000
25.220 484.000 1.000
25.240 509.000 1.000
25.260 501.000 1.000
25.280 493.000 1.000
25.300 515.000 1.000
25.320 531.000 1.000
25.340 545.000 1.000
25.360 521.000 1.000
25.380 488.000 1.000
25.400 518.000 1.000
25.420 558.000 1.000
25.440 544.000 1.000
25.460 524.000 1.000
25.480 538.000 1.000
25.500 524.000 1.000
25.520 555.000 1.000
25.540 585.000 1.000
25.560 572.000 1.000
25.580 564.000 1.000
25.600 533.000 1.000
25.620 531.000 1.000
25.640 542.000 1.000
25.660 568.000 1.000
25.680 506.000 1.000
25.700 530.000 1.000
25.720 513.000 1.000
25.740 519.000 1.000
25.760 457.000 1.000
25.780 496.000 1.000
25.800 500.000 1.000
25.820 512.000 1.000
25.840 491.000 1.000
25.860 499.000 1.000
25.880 493.000 1.000
25.900 482.000 1.000
25.920 498.000 1.000
25.940 507.000 1.000
25.960 525.000 1.000
25.980 528.000 1.000
26.000 484.000 1.000
26.020 492.000 1.000
26.040 544.000 1.000
26.060 541.000 1.000
26.080 536.000 1.000
26.100 519.000 1.000
26.120 513.000 1.000
26.140 524.000 1.000
26.160 541.000 1.000
26.180 544.000 1.000
26.200 575.000 1.000
26.220 572.000 1.000
26.240 644.000 1.000
26.260 630.000 1.000
26.280 674.000 1.000
26.300 682.000 1.000
26.320 719.000 1.000
26.340 738.000 1.000
26.360 719.000 1.000
26.380 705.000 1.000
26.400 683.000 1.000
26.420 636.000 1.000
26.440 652.000 1.000
26.460 631.000 1.000
26.480 617.000 1.000
26.500 591.000 1.000
26.520 566.000 1.000
26.540 536.000 1.000
26.560 526.000 1.000
26.580 552.000 1.000
26.600 508.000 1.000
26.620 493.000 1.000
26.640 558.000 1.000
26.660 547.000 1.000
26.680 537.000 1.000
26.700 528.000 1.000
26.720 534.000 1.000
26.740 575.000 1.000
26.760 612.000 1.000
26.780 597.000 1.000
26.800 648.000 1.000
26.820 637.000 1.000
26.840 665.000 1.000
26.860 664.000 1.000
26.880 692.000 1.000
26.900 733.000 1.000
26.920 778.000 1.000
26.940 814.000 1.000
26.960 893.000 1.000
26.980 968.000 1.000
27.000 1039.000 1.000
27.020 1041.000 1.000
27.040 1240.000 1.000
27.060 1208.000 1.000
27.080 1235.000 1.000
27.100 1274.000 1.000
27.120 1173.000 1.000
27.140 1139.000 1.000
27.160 955.000 1.000
27.180 907.000 1.000
27.200 924.000 1.000
27.220 826.000 1.000
27.240 719.000 1.000
27.260 672.000 1.000
27.280 663.000 1.000
27.300 616.000 1.000
27.320 602.000 1.000
27.340 566.000 1.000
27.360 566.000 1.000
27.380 581.000 1.000
27.400 558.000 1.000
27.420 609.000 1.000
27.440 629.000 1.000
27.460 566.000 1.000
27.480 577.000 1.000
27.500 629.000 1.000
27.520 651.000 1.000
27.540 620.000 1.000
27.560 615.000 1.000
27.580 646.000 1.000
27.600 636.000 1.000
27.620 633.000 1.000
27.640 602.000 1.000
27.660 573.000 1.000
27.680 603.000 1.000
27.700 628.000 1.000
27.720 603.000 1.000
27.740 583.000 1.000
27.760 578.000 1.000
27.780 586.000 1.000
27.800 596.000 1.000
27.820 599.000 1.000
27.840 577.000 1.000
27.860 582.000 1.000
27.880 637.000 1.000
27.900 603.000 1.000
27.920 573.000 1.000
27.940 581.000 1.000
27.960 586.000 1.000
27.980 596.000 1.000
28.000 563.000 1.000
28.020 521.000 1.000
28.040 533.000 1.000
28.060 495.000 1.000
28.080 565.000 1.000
28.100 524.000 1.000
28.120 518.000 1.000
28.140 538.000 1.000
28.160 530.000 1.000
28.180 549.000 1.000
28.200 581.000 1.000
28.220 610.000 1.000
28.240 573.000 1.000
28.260 627.000 1.000
28.280 648.000 1.000
28.300 662.000 1.000
28.320 655.000 1.000
28.340 672.000 1.000
28.360 715.000 1.000
28.380 755.000 1.000
28.400 792.000 1.000
28.420 845.000 1.000
28.440 852.000 1.000
28.460 920.000 1.000
28.480 920.000 1.000
28.500 971.000 1.000
28.520 1033.000 1.000
28.540 1122.000 1.000
28.560 1136.000 1.000
28.580 1203.000 1.000
28.600 1276.000 1.000
28.620 1351.000 1.000
28.640 1401.000 1.000
28.660 1454.000 1.000
28.680 1521.000 1.000
28.700 1605.000 1.000
28.720 1708.000 1.000
28.740 1881.000 1.000
28.760 2030.000 1.000
28.780 2197.000 1.000
28.800 2273.000 1.000
28.820 2445.000 1.000
28.840 2681.000 1.000
28.860 2795.000 1.000
28.880 2929.000 1.000
28.900 2867.000 1.000
28.920 2852.000 1.000
28.940 2852.000 1.000
28.960 2749.000 1.000
28.980 2661.000 1.000
29.000 2563.000 1.000
29.020 2549.000 1.000
29.040 2513.000 1.000
29.060 2488.000 1.000
29.080 2613.000 1.000
29.100 2587.000 1.000
29.120 2766.000 1.000
29.140 2754.000 1.000
29.160 3018.000 1.000
29.180 3138.000 1.000
29.200 3247.000 1.000
29.220 3352.000 1.000
29.240 3413.000 1.000
29.260 3543.000 1.000
29.280 3688.000 1.000
29.300 3760.000 1.000
29.320 3906.000 1.000
29.340 3793.000 1.000
29.360 3843.000 1.000
29.380 3550.000 1.000
29.400 3461.000 1.000
29.420 3174.000 1.000
29.440 2742.000 1.000
29.460 2404.000 1.000
29.480 2229.000 1.000
29.500 1999.000 1.000
29.520 1782.000 1.000
29.540 1659.000 1.000
29.560 1638.000 1.000
29.580 1553.000 1.000
29.600 1522.000 1.000
29.620 1522.000 1.000
29.640 1601.000 1.000
29.660 1606.000 1.000
29.680 1757.000 1.000
29.700 1836.000 1.000
29.720 1946.000 1.000
29.740 1996.000 1.000
29.760 2097.000 1.000
29.780 2168.000 1.000
29.800 2248.000 1.000
29.820 2272.000 1.000
29.840 2234.000 1.000
29.860 2257.000 1.000
29.880 2230.000 1.000
29.900 2221.000 1.000
29.920 2240.000 1.000
29.940 2251.000 1.000
29.960 2208.000 1.000
29.980 2256.000 1.000
30.000 2328.000 1.000
30.020 2476.000 1.000
30.040 2639.000 1.000
30.060 2683.000 1.000
30.080 2894.000 1.000
30.100 3046.000 1.000
30.120 3118.000 1.000
30.140 3237.000 1.000
30.160 3171.000 1.000
30.180 3038.000 1.000
30.200 2962.000 1.000
30.220 2839.000 1.000
30.240 2686.000 1.000
30.260 2517.000 1.000
30.280 2289.000 1.000
30.300 2094.000 1.000
30.320 1891.000 1.000
30.340 1772.000 1.000
30.360 1637.000 1.000
30.380 1533.000 1.000
30.400 1453.000 1.000
30.420 1325.000 1.000
30.440 1331.000 1.000
30.460 1345.000 1.000
30.480 1335.000 1.000
30.500 1318.000 1.000
30.520 1304.000 1.000
30.540 1248.000 1.000
30.560 1251.000 1.000
30.580 1119.000 1.000
30.600 1148.000 1.000
30.620 1068.000 1.000
30.640 972.000 1.000
30.660 890.000 1.000
30.680 829.000 1.000
30.700 729.000 1.000
30.720 776.000 1.000
30.740 762.000 1.000
30.760 755.000 1.000
30.780 770.000 1.000
30.800 769.000 1.000
30.820 801.000 1.000
30.840 904.000 1.000
30.860 940.000 1.000
30.880 1013.000 1.000
30.900 1144.000 1.000
30.920 1213.000 1.000
30.940 1341.000 1.000
30.960 1457.000 1.000
30.980 1609.000 1.000
31.000 1712.000 1.000
31.020 1721.000 1.000
31.040 1794.000 1.000
31.060 1828.000 1.000
31.080 1939.000 1.000
31.100 1872.000 1.000
31.120 1878.000 1.000
31.140 1776.000 1.000
31.160 1686.000 1.000
31.180 1591.000 1.000
31.200 1422.000 1.000
31.220 1380.000 1.000
31.240 1253.000 1.000
31.260 1099.000 1.000
31.280 1006.000 1.000
31.300 936.000 1.000
31.320 869.000 1.000
31.340 832.000 1.000
31.360 772.000 1.000
31.380 750.000 1.000
31.400 766.000 1.000
31.420 778.000 1.000
31.440 797.000 1.000
31.460 743.000 1.000
31.480 770.000 1.000
31.500 761.000 1.000
31.520 774.000 1.000
31.540 763.000 1.000
31.560 809.000 1.000
31.580 919.000 1.000
31.600 928.000 1.000
31.620 940.000 1.000
31.640 940.000 1.000
31.660 965.000 1.000
31.680 1020.000 1.000
31.700 959.000 1.000
31.720 938.000 1.000
31.740 922.000 1.000
31.760 911.000 1.000
31.780 885.000 1.000
31.800 851.000 1.000
31.820 771.000 1.000
31.840 761.000 1.000
31.860 749.000 1.000
31.880 705.000 1.000
31.900 732.000 1.000
31.920 729.000 1.000
31.940 747.000 1.000
31.960 733.000 1.000
31.980 784.000 1.000
32.000 738.000 1.000
32.020 728.000 1.000
32.040 704.000 1.000
32.060 741.000 1.000
32.080 744.000 1.000
32.100 766.000 1.000
32.120 762.000 1.000
32.140 737.000 1.000
32.160 671.000 1.000
32.180 668.000 1.000
32.200 667.000 1.000
32.220 615.000 1.000
32.240 619.000 1.000
32.260 566.000 1.000
32.280 524.000 1.000
32.300 506.000 1.000
32.320 506.000 1.000
32.340 524.000 1.000
32.360 525.000 1.000
32.380 483.000 1.000
32.400 498.000 1.000
32.420 475.000 1.000
32.440 459.000 1.000
32.460 507.000 1.000
32.480 509.000 1.000
32.500 475.000 1.000
32.520 497.000 1.000
32.540 506.000 1.000
32.560 517.000 1.000
32.580 505.000 1.000
32.600 517.000 1.000
32.620 502.000 1.000
32.640 513.000 1.000
32.660 494.000 1.000
32.680 470.000 1.000
32.700 446.000 1.000
32.720 496.000 1.000
32.740 455.000 1.000
32.760 476.000 1.000
32.780 438.000 1.000
32.800 435.000 1.000
32.820 458.000 1.000
32.840 458.000 1.000
32.860 465.000 1.000
32.880 451.000 1.000
32.900 449.000 1.000
32.920 476.000 1.000
32.940 440.000 1.000
32.960 452.000 1.000
32.980 435.000 1.000
33.000 418.000 1.000
33.020 448.000 1.000
33.040 445.000 1.000
33.060 463.000 1.000
33.080 468.000 1.000
33.100 485.000 1.000
33.120 497.000 1.000
33.140 543.000 1.000
33.160 542.000 1.000
33.180 539.000 1.000
33.200 508.000 1.000
33.220 533.000 1.000
33.240 549.000 1.000
33.260 551.000 1.000
33.280 559.000 1.000
33.300 537.000 1.000
33.320 589.000 1.000
33.340 552.000 1.000
33.360 530.000 1.000
33.380 513.000 1.000
33.400 517.000 1.000
33.420 531.000 1.000
33.440 556.000 1.000
33.460 558.000 1.000
33.480 559.000 1.000
33.500 536.000 1.000
33.520 586.000 1.000
33.540 633.000 1.000
33.560 621.000 1.000
33.580 604.000 1.000
33.600 680.000 1.000
33.620 667.000 1.000
33.640 679.000 1.000
33.660 656.000 1.000
33.680 633.000 1.000
33.700 632.000 1.000
33.720 592.000 1.000
33.740 630.000 1.000
33.760 618.000 1.000
33.780 592.000 1.000
33.800 617.000 1.000
33.820 569.000 1.000
33.840 494.000 1.000
33.860 482.000 1.000
33.880 526.000 1.000
33.900 476.000 1.000
33.920 493.000 1.000
33.940 505.000 1.000
33.960 461.000 1.000
33.980 502.000 1.000
34.000 444.000 1.000
34.020 463.000 1.000
34.040 458.000 1.000
34.060 423.000 1.000
34.080 450.000 1.000
34.100 489.000 1.000
34.120 444.000 1.000
34.140 418.000 1.000
34.160 445.000 1.000
34.180 436.000 1.000
34.200 429.000 1.000
34.220 452.000 1.000
34.240 451.000 1.000
34.260 422.000 1.000
34.280 434.000 1.000
34.300 426.000 1.000
34.320 484.000 1.000
34.340 469.000 1.000
34.360 472.000 1.000
34.380 436.000 1.000
34.400 489.000 1.000
34.420 486.000 1.000
34.440 495.000 1.000
34.460 529.000 1.000
34.480 508.000 1.000
34.500 522.000 1.000
34.520 585.000 1.000
34.540 551.000 1.000
34.560 598.000 1.000
34.580 650.000 1.000
34.600 702.000 1.000
34.620 771.000 1.000
34.640 778.000 1.000
34.660 817.000 1.000
34.680 852.000 1.000
34.700 910.000 1.000
34.720 929.000 1.000
34.740 995.000 1.000
34.760 971.000 1.000
34.780 1001.000 1.000
34.800 1025.000 1.000
34.820 946.000 1.000
34.840 886.000 1.000
34.860 870.000 1.000
34.880 768.000 1.000
34.900 723.000 1.000
34.920 712.000 1.000
34.940 644.000 1.000
34.960 601.000 1.000
34.980 571.000 1.000
35.000 585.000 1.000
35.020 581.000 1.000
35.040 541.000 1.000
35.060 518.000 1.000
35.080 492.000 1.000
35.100 504.000 1.000
35.120 537.000 1.000
35.140 523.000 1.000
35.160 552.000 1.000
35.180 534.000 1.000
35.200 552.000 1.000
35.220 566.000 1.000
35.240 641.000 1.000
35.260 559.000 1.000
35.280 581.000 1.000
35.300 597.000 1.000
35.320 545.000 1.000
35.340 533.000 1.000
35.360 482.000 1.000
35.380 515.000 1.000
35.400 486.000 1.000
35.420 498.000 1.000
35.440 456.000 1.000
35.460 468.000 1.000
35.480 452.000 1.000
35.500 473.000 1.000
35.520 440.000 1.000
35.540 450.000 1.000
35.560 480.000 1.000
35.580 518.000 1.000
35.600 510.000 1.000
35.620 523.000 1.000
35.640 526.000 1.000
35.660 505.000 1.000
35.680 506.000 1.000
35.700 512.000 1.000
35.720 493.000 1.000
35.740 488.000 1.000
35.760 476.000 1.000
35.780 496.000 1.000
35.800 492.000 1.000
35.820 489.000 1.000
35.840 457.000 1.000
35.860 444.000 1.000
35.880 481.000 1.000
35.900 479.000 1.000
35.920 455.000 1.000
35.940 453.000 1.000
35.960 479.000 1.000
35.980 458.000 1.000
36.000 416.000 1.000
36.020 380.000 1.000
36.040 441.000 1.000
36.060 430.000 1.000
36.080 454.000 1.000
36.100 448.000 1.000
36.120 447.000 1.000
36.140 490.000 1.000
36.160 485.000 1.000
36.180 514.000 1.000
36.200 558.000 1.000
36.220 573.000 1.000
36.240 597.000 1.000
36.260 651.000 1.000
36.280 699.000 1.000
36.300 682.000 1.000
36.320 736.000 1.000
36.340 763.000 1.000
36.360 819.000 1.000
36.380 771.000 1.000
36.400 874.000 1.000
36.420 833.000 1.000
36.440 834.000 1.000
36.460 815.000 1.000
36.480 824.000 1.000
36.500 860.000 1.000
36.520 800.000 1.000
36.540 743.000 1.000
36.560 712.000 1.000
36.580 706.000 1.000
36.600 657.000 1.000
36.620 635.000 1.000
36.640 633.000 1.000
36.660 633.000 1.000
36.680 594.000 1.000
36.700 601.000 1.000
36.720 576.000 1.000
36.740 583.000 1.000
36.760 530.000 1.000
36.780 614.000 1.000
36.800 633.000 1.000
36.820 594.000 1.000
36.840 575.000 1.000
36.860 579.000 1.000
36.880 615.000 1.000
36.900 650.000 1.000
36.920 636.000 1.000
36.940 677.000 1.000
36.960 705.000 1.000
36.980 707.000 1.000
37.000 694.000 1.000
37.020 696.000 1.000
37.040 669.000 1.000
37.060 663.000 1.000
37.080 665.000 1.000
37.100 655.000 1.000
37.120 650.000 1.000
37.140 627.000 1.000
37.160 603.000 1.000
37.180 601.000 1.000
37.200 550.000 1.000
37.220 530.000 1.000
37.240 535.000 1.000
37.260 522.000 1.000
37.280 482.000 1.000
37.300 528.000 1.000
37.320 501.000 1.000
37.340 529.000 1.000
37.360 546.000 1.000
37.380 559.000 1.000
37.400 602.000 1.000
37.420 573.000 1.000
37.440 604.000 1.000
37.460 631.000 1.000
37.480 672.000 1.000
37.500 688.000 1.000
37.520 681.000 1.000
37.540 714.000 1.000
37.560 782.000 1.000
37.580 780.000 1.000
37.600 863.000 1.000
37.620 774.000 1.000
37.640 841.000 1.000
37.660 853.000 1.000
37.680 880.000 1.000
37.700 947.000 1.000
37.720 873.000 1.000
37.740 846.000 1.000
37.760 776.000 1.000
37.780 788.000 1.000
37.800 783.000 1.000
37.820 721.000 1.000
37.840 662.000 1.000
37.860 631.000 1.000
37.880 604.000 1.000
37.900 545.000 1.000
37.920 558.000 1.000
37.940 535.000 1.000
37.960 518.000 1.000
37.980 509.000 1.000
38.000 510.000 1.000
38.020 509.000 1.000
38.040 486.000 1.000
38.060 502.000 1.000
38.080 523.000 1.000
38.100 498.000 1.000
38.120 514.000 1.000
38.140 522.000 1.000
38.160 508.000 1.000
38.180 524.000 1.000
38.200 501.000 1.000
38.220 549.000 1.000
38.240 529.000 1.000
38.260 599.000 1.000
38.280 610.000 1.000
38.300 614.000 1.000
38.320 644.000 1.000
38.340 655.000 1.000
38.360 678.000 1.000
38.380 740.000 1.000
38.400 737.000 1.000
38.420 732.000 1.000
38.440 714.000 1.000
38.460 717.000 1.000
38.480 755.000 1.000
38.500 775.000 1.000
38.520 743.000 1.000
38.540 723.000 1.000
38.560 714.000 1.000
38.580 688.000 1.000
38.600 660.000 1.000
38.620 661.000 1.000
38.640 624.000 1.000
38.660 600.000 1.000
38.680 586.000 1.000
38.700 548.000 1.000
38.720 513.000 1.000
38.740 505.000 1.000
38.760 495.000 1.000
38.780 495.000 1.000
38.800 498.000 1.000
38.820 481.000 1.000
38.840 504.000 1.000
38.860 518.000 1.000
38.880 518.000 1.000
38.900 514.000 1.000
38.920 534.000 1.000
38.940 550.000 1.000
38.960 525.000 1.000
38.980 553.000 1.000
39.000 481.000 1.000
39.020 506.000 1.000
39.040 526.000 1.000
39.060 522.000 1.000
39.080 509.000 1.000
39.100 506.000 1.000
39.120 525.000 1.000
39.140 543.000 1.000
39.160 555.000 1.000
39.180 484.000 1.000
39.200 536.000 1.000
39.220 541.000 1.000
39.240 530.000 1.000
39.260 504.000 1.000
39.280 551.000 1.000
39.300 566.000 1.000
39.320 527.000 1.000
39.340 523.000 1.000
39.360 527.000 1.000
39.380 512.000 1.000
39.400 557.000 1.000
39.420 600.000 1.000
39.440 512.000 1.000
39.460 548.000 1.000
39.480 590.000 1.000
39.500 543.000 1.000
39.520 529.000 1.000
39.540 498.000 1.000
39.560 574.000 1.000
39.580 595.000 1.000
39.600 580.000 1.000
39.620 570.000 1.000
39.640 585.000 1.000
39.660 661.000 1.000
39.680 624.000 1.000
39.700 691.000 1.000
39.720 706.000 1.000
39.740 743.000 1.000
39.760 749.000 1.000
39.780 725.000 1.000
39.800 727.000 1.000
39.820 746.000 1.000
39.840 795.000 1.000
39.860 800.000 1.000
39.880 729.000 1.000
39.900 711.000 1.000
39.920 705.000 1.000
39.940 688.000 1.000
39.960 684.000 1.000
39.980 631.000 1.000
40.000 559.000 1.000
40.020 592.000 1.000
40.040 616.000 1.000
40.060 566.000 1.000
40.080 551.000 1.000
40.100 550.000 1.000
40.120 537.000 1.000
40.140 514.000 1.000
40.160 542.000 1.000
40.180 552.000 1.000
40.200 557.000 1.000
40.220 536.000 1.000
40.240 536.000 1.000
40.260 564.000 1.000
40.280 538.000 1.000
40.300 545.000 1.000
40.320 545.000 1.000
40.340 544.000 1.000
40.360 547.000 1.000
40.380 554.000 1.000
40.400 618.000 1.000
40.420 672.000 1.000
40.440 670.000 1.000
40.460 619.000 1.000
40.480 654.000 1.000
40.500 686.000 1.000
40.520 728.000 1.000
40.540 686.000 1.000
40.560 673.000 1.000
40.580 668.000 1.000
40.600 664.000 1.000
40.620 621.000 1.000
40.640 596.000 1.000
40.660 562.000 1.000
40.680 543.000 1.000
40.700 531.000 1.000
40.720 504.000 1.000
40.740 497.000 1.000
40.760 477.000 1.000
40.780 449.000 1.000
40.800 436.000 1.000
40.820 443.000 1.000
40.840 444.000 1.000
40.860 443.000 1.000
40.880 440.000 1.000
40.900 434.000 1.000
40.920 440.000 1.000
40.940 437.000 1.000
40.960 441.000 1.000
40.980 419.000 1.000
41.000 416.000 1.000
41.020 416.000 1.000
41.040 411.000 1.000
41.060 412.000 1.000
41.080 409.000 1.000
41.100 404.000 1.000
41.120 376.000 1.000
41.140 378.000 1.000
41.160 390.000 1.000
41.180 376.000 1.000
41.200 418.000 1.000
41.220 408.000 1.000
41.240 377.000 1.000
41.260 383.000 1.000
41.280 383.000 1.000
41.300 385.000 1.000
41.320 374.000 1.000
41.340 365.000 1.000
41.360 392.000 1.000
41.380 417.000 1.000
41.400 421.000 1.000
41.420 406.000 1.000
41.440 437.000 1.000
41.460 421.000 1.000
41.480 386.000 1.000
41.500 400.000 1.000
41.520 412.000 1.000
41.540 404.000 1.000
41.560 408.000 1.000
41.580 437.000 1.000
41.600 383.000 1.000
41.620 404.000 1.000
41.640 404.000 1.000
41.660 418.000 1.000
41.680 409.000 1.000
41.700 430.000 1.000
41.720 445.000 1.000
41.740 430.000 1.000
41.760 415.000 1.000
41.780 456.000 1.000
41.800 465.000 1.000
41.820 473.000 1.000
41.840 447.000 1.000
41.860 491.000 1.000
41.880 470.000 1.000
41.900 508.000 1.000
41.920 548.000 1.000
41.940 552.000 1.000
41.960 519.000 1.000
41.980 531.000 1.000
42.000 550.000 1.000
42.020 589.000 1.000
42.040 568.000 1.000
42.060 603.000 1.000
42.080 571.000 1.000
42.100 545.000 1.000
42.120 548.000 1.000
42.140 561.000 1.000
42.160 551.000 1.000
42.180 573.000 1.000
42.200 524.000 1.000
42.220 504.000 1.000
42.240 553.000 1.000
42.260 560.000 1.000
42.280 509.000 1.000
42.300 526.000 1.000
42.320 533.000 1.000
42.340 544.000 1.000
42.360 567.000 1.000
42.380 573.000 1.000
42.400 568.000 1.000
42.420 548.000 1.000
42.440 542.000 1.000
42.460 505.000 1.000
42.480 538.000 1.000
42.500 541.000 1.000
42.520 595.000 1.000
42.540 571.000 1.000
42.560 596.000 1.000
42.580 599.000 1.000
42.600 612.000 1.000
42.620 561.000 1.000
42.640 587.000 1.000
42.660 617.000 1.000
42.680 627.000 1.000
42.700 610.000 1.000
42.720 617.000 1.000
42.740 599.000 1.000
42.760 634.000 1.000
42.780 615.000 1.000
42.800 635.000 1.000
42.820 625.000 1.000
42.840 605.000 1.000
42.860 620.000 1.000
42.880 605.000 1.000
42.900 603.000 1.000
42.920 581.000 1.000
42.940 566.000 1.000
42.960 557.000 1.000
42.980 585.000 1.000
43.000 594.000 1.000
43.020 604.000 1.000
43.040 645.000 1.000
43.060 679.000 1.000
43.080 658.000 1.000
43.100 653.000 1.000
43.120 649.000 1.000
43.140 642.000 1.000
43.160 643.000 1.000
43.180 650.000 1.000
43.200 599.000 1.000
43.220 599.000 1.000
43.240 583.000 1.000
43.260 568.000 1.000
43.280 555.000 1.000
43.300 531.000 1.000
43.320 526.000 1.000
43.340 529.000 1.000
43.360 476.000 1.000
43.380 489.000 1.000
43.400 490.000 1.000
43.420 472.000 1.000
43.440 481.000 1.000
43.460 473.000 1.000
43.480 470.000 1.000
43.500 451.000 1.000
43.520 466.000 1.000
43.540 470.000 1.000
43.560 457.000 1.000
43.580 456.000 1.000
43.600 459.000 1.000
43.620 489.000 1.000
43.640 470.000 1.000
43.660 471.000 1.000
43.680 489.000 1.000
43.700 493.000 1.000
43.720 477.000 1.000
43.740 453.000 1.000
43.760 455.000 1.000
43.780 487.000 1.000
43.800 463.000 1.000
43.820 493.000 1.000
43.840 470.000 1.000
43.860 495.000 1.000
43.880 502.000 1.000
43.900 499.000 1.000
43.920 566.000 1.000
43.940 611.000 1.000
43.960 609.000 1.000
43.980 618.000 1.000
44.000 630.000 1.000
44.020 672.000 1.000
44.040 637.000 1.000
44.060 685.000 1.000
44.080 690.000 1.000
44.100 741.000 1.000
44.120 739.000 1.000
44.140 715.000 1.000
44.160 726.000 1.000
44.180 719.000 1.000
44.200 701.000 1.000
44.220 690.000 1.000
44.240 725.000 1.000
44.260 675.000 1.000
44.280 611.000 1.000
44.300 638.000 1.000
44.320 595.000 1.000
44.340 585.000 1.000
44.360 561.000 1.000
44.380 532.000 1.000
44.400 555.000 1.000
44.420 539.000 1.000
44.440 532.000 1.000
44.460 542.000 1.000
44.480 514.000 1.000
44.500 517.000 1.000
44.520 515.000 1.000
44.540 510.000 1.000
44.560 537.000 1.000
44.580 566.000 1.000
44.600 494.000 1.000
44.620 546.000 1.000
44.640 571.000 1.000
44.660 596.000 1.000
44.680 597.000 1.000
44.700 643.000 1.000
44.720 662.000 1.000
44.740 676.000 1.000
44.760 667.000 1.000
44.780 657.000 1.000
44.800 628.000 1.000
44.820 674.000 1.000
44.840 711.000 1.000
44.860 738.000 1.000
44.880 721.000 1.000
44.900 754.000 1.000
44.920 730.000 1.000
44.940 758.000 1.000
44.960 746.000 1.000
44.980 716.000 1.000
45.000 712.000 1.000
45.020 734.000 1.000
45.040 704.000 1.000
45.060 741.000 1.000
45.080 761.000 1.000
45.100 741.000 1.000
45.120 780.000 1.000
45.140 762.000 1.000
45.160 774.000 1.000
45.180 798.000 1.000
45.200 775.000 1.000
45.220 786.000 1.000
45.240 742.000 1.000
45.260 703.000 1.000
45.280 699.000 1.000
45.300 736.000 1.000
45.320 677.000 1.000
45.340 617.000 1.000
45.360 640.000 1.000
45.380 562.000 1.000
45.400 558.000 1.000
45.420 592.000 1.000
45.440 552.000 1.000
45.460 545.000 1.000
45.480 532.000 1.000
45.500 515.000 1.000
45.520 504.000 1.000
45.540 501.000 1.000
45.560 475.000 1.000
45.580 517.000 1.000
45.600 477.000 1.000
45.620 477.000 1.000
45.640 497.000 1.000
45.660 468.000 1.000
45.680 466.000 1.000
45.700 473.000 1.000
45.720 480.000 1.000
45.740 536.000 1.000
45.760 511.000 1.000
45.780 507.000 1.000
45.800 508.000 1.000
45.820 526.000 1.000
45.840 502.000 1.000
45.860 510.000 1.000
45.880 521.000 1.000
45.900 549.000 1.000
45.920 556.000 1.000
45.940 573.000 1.000
45.960 584.000 1.000
45.980 615.000 1.000
46.000 566.000 1.000
46.020 545.000 1.000
46.040 584.000 1.000
46.060 559.000 1.000
46.080 519.000 1.000
46.100 537.000 1.000
46.120 491.000 1.000
46.140 520.000 1.000
46.160 540.000 1.000
46.180 514.000 1.000
46.200 434.000 1.000
46.220 482.000 1.000
46.240 488.000 1.000
46.260 484.000 1.000
46.280 470.000 1.000
46.300 477.000 1.000
46.320 428.000 1.000
46.340 432.000 1.000
46.360 450.000 1.000
46.380 468.000 1.000
46.400 430.000 1.000
46.420 423.000 1.000
46.440 491.000 1.000
46.460 446.000 1.000
46.480 405.000 1.000
46.500 450.000 1.000
46.520 476.000 1.000
46.540 458.000 1.000
46.560 491.000 1.000
46.580 464.000 1.000
46.600 470.000 1.000
46.620 485.000 1.000
46.640 476.000 1.000
46.660 462.000 1.000
46.680 484.000 1.000
46.700 481.000 1.000
46.720 497.000 1.000
46.740 489.000 1.000
46.760 506.000 1.000
46.780 502.000 1.000
46.800 510.000 1.000
46.820 528.000 1.000
46.840 556.000 1.000
46.860 581.000 1.000
46.880 598.000 1.000
46.900 613.000 1.000
46.920 605.000 1.000
46.940 626.000 1.000
46.960 666.000 1.000
46.980 648.000 1.000
47.000 659.000 1.000
47.020 659.000 1.000
47.040 695.000 1.000
47.060 700.000 1.000
47.080 727.000 1.000
47.100 664.000 1.000
47.120 708.000 1.000
47.140 685.000 1.000
47.160 732.000 1.000
47.180 758.000 1.000
47.200 721.000 1.000
47.220 704.000 1.000
47.240 698.000 1.000
47.260 664.000 1.000
47.280 654.000 1.000
47.300 632.000 1.000
47.320 682.000 1.000
47.340 626.000 1.000
47.360 619.000 1.000
47.380 596.000 1.000
47.400 567.000 1.000
47.420 642.000 1.000
47.440 598.000 1.000
47.460 593.000 1.000
47.480 584.000 1.000
47.500 585.000 1.000
47.520 628.000 1.000
47.540 637.000 1.000
47.560 611.000 1.000
47.580 641.000 1.000
47.600 661.000 1.000
47.620 638.000 1.000
47.640 640.000 1.000
47.660 638.000 1.000
47.680 592.000 1.000
47.700 674.000 1.000
47.720 627.000 1.000
47.740 575.000 1.000
47.760 615.000 1.000
47.780 551.000 1.000
47.800 562.000 1.000
47.820 560.000 1.000
47.840 547.000 1.000
47.860 526.000 1.000
47.880 533.000 1.000
47.900 537.000 1.000
47.920 515.000 1.000
47.940 539.000 1.000
47.960 520.000 1.000
47.980 511.000 1.000
48.000 528.000 1.000
48.020 500.000 1.000
48.040 504.000 1.000
48.060 496.000 1.000
48.080 496.000 1.000
48.100 507.000 1.000
48.120 479.000 1.000
48.140 497.000 1.000
48.160 458.000 1.000
48.180 513.000 1.000
48.200 494.000 1.000
48.220 490.000 1.000
48.240 516.000 1.000
48.260 478.000 1.000
48.280 565.000 1.000
48.300 537.000 1.000
48.320 517.000 1.000
48.340 511.000 1.000
48.360 556.000 1.000
48.380 538.000 1.000
48.400 588.000 1.000
48.420 535.000 1.000
48.440 553.000 1.000
48.460 529.000 1.000
48.480 510.000 1.000
48.500 542.000 1.000
48.520 537.000 1.000
48.540 538.000 1.000
48.560 546.000 1.000
48.580 520.000 1.000
48.600 520.000 1.000
48.620 544.000 1.000
48.640 544.000 1.000
48.660 545.000 1.000
48.680 528.000 1.000
48.700 519.000 1.000
48.720 526.000 1.000
48.740 528.000 1.000
48.760 495.000 1.000
48.780 542.000 1.000
48.800 534.000 1.000
48.820 530.000 1.000
48.840 500.000 1.000
48.860 549.000 1.000
48.880 514.000 1.000
48.900 561.000 1.000
48.920 535.000 1.000
48.940 527.000 1.000
48.960 516.000 1.000
48.980 498.000 1.000
49.000 513.000 1.000
49.020 563.000 1.000
49.040 539.000 1.000
49.060 546.000 1.000
49.080 535.000 1.000
49.100 538.000 1.000
49.120 584.000 1.000
49.140 545.000 1.000
49.160 540.000 1.000
49.180 584.000 1.000
49.200 547.000 1.000
49.220 567.000 1.000
49.240 617.000 1.000
49.260 579.000 1.000
49.280 582.000 1.000
49.300 621.000 1.000
49.320 577.000 1.000
49.340 567.000 1.000
49.360 557.000 1.000
49.380 578.000 1.000
49.400 546.000 1.000
49.420 597.000 1.000
49.440 560.000 1.000
49.460 527.000 1.000
49.480 551.000 1.000
49.500 560.000 1.000
49.520 547.000 1.000
49.540 595.000 1.000
49.560 520.000 1.000
49.580 539.000 1.000
49.600 560.000 1.000
49.620 528.000 1.000
49.640 515.000 1.000
49.660 517.000 1.000
49.680 527.000 1.000
49.700 533.000 1.000
49.720 511.000 1.000
49.740 500.000 1.000
49.760 493.000 1.000
49.780 479.000 1.000
49.800 499.000 1.000
49.820 552.000 1.000
49.840 507.000 1.000
49.860 459.000 1.000
49.880 488.000 1.000
49.900 508.000 1.000
49.920 509.000 1.000
49.940 506.000 1.000
49.960 474.000 1.000
49.980 502.000 1.000
50.000 519.000 1.000
50.020 480.000 1.000
50.040 504.000 1.000
50.060 464.000 1.000
50.080 457.000 1.000
50.100 485.000 1.000
50.120 486.000 1.000
50.140 480.000 1.000
50.160 485.000 1.000
50.180 480.000 1.000
50.200 506.000 1.000
50.220 484.000 1.000
50.240 475.000 1.000
50.260 480.000 1.000
50.280 473.000 1.000
50.300 479.000 1.000
50.320 489.000 1.000
50.340 465.000 1.000
50.360 467.000 1.000
50.380 495.000 1.000
50.400 443.000 1.000
50.420 451.000 1.000
50.440 451.000 1.000
50.460 479.000 1.000
50.480 454.000 1.000
50.500 456.000 1.000
50.520 440.000 1.000
50.540 487.000 1.000
50.560 449.000 1.000
50.580 452.000 1.000
50.600 435.000 1.000
50.620 427.000 1.000
50.640 463.000 1.000
50.660 450.000 1.000
50.680 428.000 1.000
50.700 448.000 1.000
50.720 461.000 1.000
50.740 456.000 1.000
50.760 434.000 1.000
50.780 458.000 1.000
50.800 462.000 1.000
50.820 463.000 1.000
50.840 439.000 1.000
50.860 447.000 1.000
50.880 453.000 1.000
50.900 423.000 1.000
50.920 431.000 1.000
50.940 424.000 1.000
50.960 435.000 1.000
50.980 428.000 1.000
51.000 437.000 1.000
51.020 407.000 1.000
51.040 414.000 1.000
51.060 446.000 1.000
51.080 454.000 1.000
51.100 403.000 1.000
51.120 437.000 1.000
51.140 462.000 1.000
51.160 448.000 1.000
51.180 422.000 1.000
51.200 412.000 1.000
51.220 414.000 1.000
51.240 406.000 1.000
51.260 401.000 1.000
51.280 424.000 1.000
51.300 412.000 1.000
51.320 410.000 1.000
51.340 441.000 1.000
51.360 455.000 1.000
51.380 495.000 1.000
51.400 492.000 1.000
51.420 450.000 1.000
51.440 462.000 1.000
51.460 473.000 1.000
51.480 518.000 1.000
51.500 524.000 1.000
51.520 533.000 1.000
51.540 538.000 1.000
51.560 557.000 1.000
51.580 569.000 1.000
51.600 577.000 1.000
51.620 601.000 1.000
51.640 613.000 1.000
51.660 633.000 1.000
51.680 623.000 1.000
51.700 634.000 1.000
51.720 641.000 1.000
51.740 653.000 1.000
51.760 663.000 1.000
51.780 679.000 1.000
51.800 665.000 1.000
51.820 679.000 1.000
51.840 684.000 1.000
51.860 721.000 1.000
51.880 719.000 1.000
51.900 687.000 1.000
51.920 682.000 1.000
51.940 715.000 1.000
51.960 703.000 1.000
51.980 679.000 1.000
52.000 693.000 1.000
52.020 734.000 1.000
52.040 699.000 1.000
52.060 730.000 1.000
52.080 730.000 1.000
52.100 733.000 1.000
52.120 701.000 1.000
52.140 758.000 1.000
52.160 653.000 1.000
52.180 566.000 1.000
52.200 616.000 1.000
52.220 590.000 1.000
52.240 633.000 1.000
52.260 620.000 1.000
52.280 604.000 1.000
52.300 557.000 1.000
52.320 561.000 1.000
52.340 546.000 1.000
52.360 545.000 1.000
52.380 569.000 1.000
52.400 553.000 1.000
52.420 538.000 1.000
52.440 572.000 1.000
52.460 637.000 1.000
52.480 646.000 1.000
52.500 605.000 1.000
52.520 575.000 1.000
52.540 588.000 1.000
52.560 568.000 1.000
52.580 600.000 1.000
52.600 646.000 1.000
52.620 656.000 1.000
52.640 661.000 1.000
52.660 686.000 1.000
52.680 657.000 1.000
52.700 615.000 1.000
52.720 630.000 1.000
52.740 650.000 1.000
52.760 675.000 1.000
52.780 674.000 1.000
52.800 655.000 1.000
52.820 684.000 1.000
52.840 656.000 1.000
52.860 665.000 1.000
52.880 713.000 1.000
52.900 700.000 1.000
52.920 695.000 1.000
52.940 692.000 1.000
52.960 679.000 1.000
52.980 668.000 1.000
53.000 687.000 1.000
53.020 672.000 1.000
53.040 657.000 1.000
53.060 666.000 1.000
53.080 632.000 1.000
53.100 619.000 1.000
53.120 638.000 1.000
53.140 649.000 1.000
53.160 621.000 1.000
53.180 608.000 1.000
53.200 631.000 1.000
53.220 650.000 1.000
53.240 633.000 1.000
53.260 616.000 1.000
53.280 633.000 1.000
53.300 682.000 1.000
53.320 632.000 1.000
53.340 616.000 1.000
53.360 624.000 1.000
53.380 632.000 1.000
53.400 647.000 1.000
53.420 621.000 1.000
53.440 618.000 1.000
53.460 642.000 1.000
53.480 627.000 1.000
53.500 628.000 1.000
53.520 618.000 1.000
53.540 604.000 1.000
53.560 607.000 1.000
53.580 603.000 1.000
53.600 607.000 1.000
53.620 625.000 1.000
53.640 629.000 1.000
53.660 603.000 1.000
53.680 582.000 1.000
53.700 621.000 1.000
53.720 595.000 1.000
53.740 574.000 1.000
53.760 617.000 1.000
53.780 563.000 1.000
53.800 561.000 1.000
53.820 538.000 1.000
53.840 558.000 1.000
53.860 596.000 1.000
53.880 588.000 1.000
53.900 615.000 1.000
53.920 598.000 1.000
53.940 579.000 1.000
53.960 594.000 1.000
53.980 566.000 1.000
54.000 593.000 1.000
54.020 569.000 1.000
54.040 581.000 1.000
54.060 591.000 1.000
54.080 570.000 1.000
54.100 574.000 1.000
54.120 581.000 1.000
54.140 602.000 1.000
54.160 584.000 1.000
54.180 564.000 1.000
54.200 523.000 1.000
54.220 561.000 1.000
54.240 533.000 1.000
54.260 545.000 1.000
54.280 526.000 1.000
54.300 543.000 1.000
54.320 528.000 1.000
54.340 518.000 1.000
54.360 499.000 1.000
54.380 487.000 1.000
54.400 504.000 1.000
54.420 534.000 1.000
54.440 531.000 1.000
54.460 551.000 1.000
54.480 527.000 1.000
54.500 530.000 1.000
54.520 543.000 1.000
54.540 555.000 1.000
54.560 520.000 1.000
54.580 508.000 1.000
54.600 496.000 1.000
54.620 528.000 1.000
54.640 574.000 1.000
54.660 553.000 1.000
54.680 532.000 1.000
54.700 526.000 1.000
54.720 588.000 1.000
54.740 598.000 1.000
54.760 530.000 1.000
54.780 551.000 1.000
54.800 556.000 1.000
54.820 571.000 1.000
54.840 579.000 1.000
54.860 574.000 1.000
54.880 550.000 1.000
54.900 526.000 1.000
54.920 527.000 1.000
54.940 550.000 1.000
54.960 536.000 1.000
54.980 555.000 1.000
55.000 524.000 1.000
55.020 515.000 1.000
55.040 520.000 1.000
55.060 541.000 1.000
55.080 519.000 1.000
55.100 509.000 1.000
55.120 484.000 1.000
55.140 517.000 1.000
55.160 494.000 1.000
55.180 490.000 1.000
55.200 479.000 1.000
55.220 491.000 1.000
55.240 496.000 1.000
55.260 511.000 1.000
55.280 485.000 1.000
55.300 514.000 1.000
55.320 527.000 1.000
55.340 502.000 1.000
55.360 466.000 1.000
55.380 467.000 1.000
55.400 482.000 1.000
55.420 469.000 1.000
55.440 494.000 1.000
55.460 466.000 1.000
55.480 479.000 1.000
55.500 490.000 1.000
55.520 518.000 1.000
55.540 509.000 1.000
55.560 525.000 1.000
55.580 536.000 1.000
55.600 515.000 1.000
55.620 526.000 1.000
55.640 535.000 1.000
55.660 501.000 1.000
55.680 523.000 1.000
55.700 557.000 1.000
55.720 576.000 1.000
55.740 570.000 1.000
55.760 590.000 1.000
55.780 582.000 1.000
55.800 588.000 1.000
55.820 608.000 1.000
55.840 606.000 1.000
55.860 621.000 1.000
55.880 596.000 1.000
55.900 592.000 1.000
55.920 606.000 1.000
55.940 596.000 1.000
55.960 593.000 1.000
55.980 611.000 1.000
56.000 585.000 1.000
56.020 589.000 1.000
56.040 577.000 1.000
56.060 542.000 1.000
56.080 558.000 1.000
56.100 579.000 1.000
56.120 552.000 1.000
56.140 529.000 1.000
56.160 525.000 1.000
56.180 533.000 1.000
56.200 569.000 1.000
56.220 517.000 1.000
56.240 554.000 1.000
56.260 531.000 1.000
56.280 562.000 1.000
56.300 541.000 1.000
56.320 519.000 1.000
56.340 490.000 1.000
56.360 479.000 1.000
56.380 490.000 1.000
56.400 494.000 1.000
56.420 516.000 1.000
56.440 490.000 1.000
56.460 486.000 1.000
56.480 468.000 1.000
56.500 470.000 1.000
56.520 462.000 1.000
56.540 454.000 1.000
56.560 446.000 1.000
56.580 461.000 1.000
56.600 480.000 1.000
56.620 485.000 1.000
56.640 446.000 1.000
56.660 442.000 1.000
56.680 458.000 1.000
56.700 472.000 1.000
56.720 478.000 1.000
56.740 490.000 1.000
56.760 465.000 1.000
56.780 499.000 1.000
56.800 500.000 1.000
56.820 490.000 1.000
56.840 497.000 1.000
56.860 517.000 1.000
56.880 526.000 1.000
56.900 565.000 1.000
56.920 545.000 1.000
56.940 543.000 1.000
56.960 579.000 1.000
56.980 556.000 1.000
57.000 528.000 1.000
57.020 499.000 1.000
57.040 480.000 1.000
57.060 467.000 1.000
57.080 492.000 1.000
57.100 487.000 1.000
57.120 514.000 1.000
57.140 439.000 1.000
57.160 494.000 1.000
57.180 458.000 1.000
57.200 472.000 1.000
57.220 445.000 1.000
57.240 456.000 1.000
57.260 443.000 1.000
57.280 425.000 1.000
57.300 446.000 1.000
57.320 458.000 1.000
57.340 416.000 1.000
57.360 405.000 1.000
57.380 399.000 1.000
57.400 441.000 1.000
57.420 416.000 1.000
57.440 410.000 1.000
57.460 429.000 1.000
57.480 415.000 1.000
57.500 428.000 1.000
57.520 418.000 1.000
57.540 428.000 1.000
57.560 484.000 1.000
57.580 451.000 1.000
57.600 452.000 1.000
57.620 460.000 1.000
57.640 478.000 1.000
57.660 476.000 1.000
57.680 512.000 1.000
57.700 539.000 1.000
57.720 516.000 1.000
57.740 516.000 1.000
57.760 523.000 1.000
57.780 519.000 1.000
57.800 535.000 1.000
57.820 557.000 1.000
57.840 561.000 1.000
57.860 591.000 1.000
57.880 565.000 1.000
57.900 568.000 1.000
57.920 542.000 1.000
57.940 561.000 1.000
57.960 540.000 1.000
57.980 604.000 1.000
58.000 544.000 1.000
58.020 559.000 1.000
58.040 521.000 1.000
58.060 488.000 1.000
58.080 484.000 1.000
58.100 474.000 1.000
58.120 490.000 1.000
58.140 451.000 1.000
58.160 473.000 1.000
58.180 420.000 1.000
58.200 442.000 1.000
58.220 469.000 1.000
58.240 454.000 1.000
58.260 477.000 1.000
58.280 481.000 1.000
58.300 432.000 1.000
58.320 469.000 1.000
58.340 501.000 1.000
58.360 471.000 1.000
58.380 467.000 1.000
58.400 467.000 1.000
58.420 463.000 1.000
58.440 467.000 1.000
58.460 500.000 1.000
58.480 538.000 1.000
58.500 518.000 1.000
58.520 546.000 1.000
58.540 492.000 1.000
58.560 507.000 1.000
58.580 505.000 1.000
58.600 531.000 1.000
58.620 523.000 1.000
58.640 527.000 1.000
58.660 520.000 1.000
58.680 460.000 1.000
58.700 485.000 1.000
58.720 482.000 1.000
58.740 450.000 1.000
58.760 480.000 1.000
58.780 459.000 1.000
58.800 462.000 1.000
58.820 501.000 1.000
58.840 448.000 1.000
58.860 439.000 1.000
58.880 438.000 1.000
58.900 424.000 1.000
58.920 504.000 1.000
58.940 447.000 1.000
58.960 419.000 1.000
58.980 445.000 1.000
59.000 474.000 1.000
59.020 443.000 1.000
59.040 465.000 1.000
59.060 467.000 1.000
59.080 482.000 1.000
59.100 492.000 1.000
59.120 500.000 1.000
59.140 445.000 1.000
59.160 522.000 1.000
59.180 492.000 1.000
59.200 457.000 1.000
59.220 498.000 1.000
59.240 491.000 1.000
59.260 472.000 1.000
59.280 462.000 1.000
59.300 520.000 1.000
59.320 501.000 1.000
59.340 532.000 1.000
59.360 523.000 1.000
59.380 503.000 1.000
59.400 516.000 1.000
59.420 516.000 1.000
59.440 516.000 1.000
59.460 501.000 1.000
59.480 521.000 1.000
59.500 512.000 1.000
59.520 540.000 1.000
59.540 518.000 1.000
59.560 535.000 1.000
59.580 532.000 1.000
59.600 521.000 1.000
59.620 541.000 1.000
59.640 510.000 1.000
59.660 549.000 1.000
59.680 498.000 1.000
59.700 506.000 1.000
59.720 530.000 1.000
59.740 505.000 1.000
59.760 467.000 1.000
59.780 505.000 1.000
59.800 489.000 1.000
59.820 489.000 1.000
59.840 460.000 1.000
59.860 461.000 1.000
59.880 463.000 1.000
59.900 480.000 1.000
59.920 451.000 1.000
59.940 440.000 1.000
59.960 450.000 1.000
59.980 452.000 1.000
60.000 469.000 1.000
60.020 454.000 1.000
60.040 412.000 1.000
60.060 452.000 1.000
60.080 429.000 1.000
60.100 420.000 1.000
60.120 442.000 1.000
60.140 434.000 1.000
60.160 465.000 1.000
60.180 447.000 1.000
60.200 468.000 1.000
60.220 451.000 1.000
60.240 417.000 1.000
60.260 443.000 1.000
60.280 448.000 1.000
60.300 453.000 1.000
60.320 434.000 1.000
60.340 423.000 1.000
60.360 457.000 1.000
60.380 469.000 1.000
60.400 415.000 1.000
60.420 413.000 1.000
60.440 463.000 1.000
60.460 462.000 1.000
60.480 440.000 1.000
60.500 445.000 1.000
60.520 455.000 1.000
60.540 441.000 1.000
60.560 424.000 1.000
60.580 460.000 1.000
60.600 452.000 1.000
60.620 447.000 1.000
60.640 421.000 1.000
60.660 409.000 1.000
60.680 391.000 1.000
60.700 405.000 1.000
60.720 394.000 1.000
60.740 435.000 1.000
60.760 429.000 1.000
60.780 407.000 1.000
60.800 435.000 1.000
60.820 428.000 1.000
60.840 413.000 1.000
60.860 409.000 1.000
60.880 444.000 1.000
60.900 446.000 1.000
60.920 425.000 1.000
60.940 388.000 1.000
60.960 401.000 1.000
60.980 393.000 1.000
61.000 407.000 1.000
61.020 414.000 1.000
61.040 420.000 1.000
61.060 395.000 1.000
61.080 413.000 1.000
61.100 402.000 1.000
61.120 373.000 1.000
61.140 387.000 1.000
61.160 426.000 1.000
61.180 385.000 1.000
61.200 397.000 1.000
61.220 422.000 1.000
61.240 350.000 1.000
61.260 386.000 1.000
61.280 412.000 1.000
61.300 400.000 1.000
61.320 370.000 1.000
61.340 370.000 1.000
61.360 372.000 1.000
61.380 374.000 1.000
61.400 379.000 1.000
61.420 404.000 1.000
61.440 402.000 1.000
61.460 364.000 1.000
61.480 351.000 1.000
61.500 367.000 1.000
61.520 413.000 1.000
61.540 395.000 1.000
61.560 373.000 1.000
61.580 392.000 1.000
61.600 384.000 1.000
61.620 388.000 1.000
61.640 378.000 1.000
61.660 366.000 1.000
61.680 364.000 1.000
61.700 355.000 1.000
61.720 389.000 1.000
61.740 396.000 1.000
61.760 420.000 1.000
61.780 395.000 1.000
61.800 401.000 1.000
61.820 380.000 1.000
61.840 395.000 1.000
61.860 377.000 1.000
61.880 413.000 1.000
61.900 386.000 1.000
61.920 394.000 1.000
61.940 405.000 1.000
61.960 378.000 1.000
61.980 390.000 1.000
62.000 390.000 1.000
62.020 411.000 1.000
62.040 369.000 1.000
62.060 394.000 1.000
62.080 412.000 1.000
62.100 368.000 1.000
62.120 370.000 1.000
62.140 374.000 1.000
62.160 395.000 1.000
62.180 373.000 1.000
62.200 418.000 1.000
62.220 371.000 1.000
62.240 344.000 1.000
62.260 387.000 1.000
62.280 386.000 1.000
62.300 388.000 1.000
62.320 398.000 1.000
62.340 395.000 1.000
62.360 351.000 1.000
62.380 382.000 1.000
62.400 347.000 1.000
62.420 385.000 1.000
62.440 374.000 1.000
62.460 386.000 1.000
62.480 430.000 1.000
62.500 392.000 1.000
62.520 392.000 1.000
62.540 381.000 1.000
62.560 379.000 1.000
62.580 390.000 1.000
62.600 383.000 1.000
62.620 384.000 1.000
62.640 372.000 1.000
62.660 368.000 1.000
62.680 376.000 1.000
62.700 361.000 1.000
62.720 382.000 1.000
62.740 412.000 1.000
62.760 404.000 1.000
62.780 407.000 1.000
62.800 393.000 1.000
62.820 385.000 1.000
62.840 392.000 1.000
62.860 379.000 1.000
62.880 404.000 1.000
62.900 454.000 1.000
62.920 411.000 1.000
62.940 387.000 1.000
62.960 374.000 1.000
62.980 373.000 1.000
63.000 412.000 1.000
63.020 408.000 1.000
63.040 428.000 1.000
63.060 407.000 1.000
63.080 471.000 1.000
63.100 411.000 1.000
63.120 414.000 1.000
63.140 420.000 1.000
63.160 390.000 1.000
63.180 408.000 1.000
63.200 429.000 1.000
63.220 379.000 1.000
63.240 440.000 1.000
63.260 420.000 1.000
63.280 419.000 1.000
63.300 389.000 1.000
63.320 405.000 1.000
63.340 440.000 1.000
63.360 413.000 1.000
63.380 427.000 1.000
63.400 425.000 1.000
63.420 413.000 1.000
63.440 432.000 1.000
63.460 414.000 1.000
63.480 406.000 1.000
63.500 423.000 1.000
63.520 397.000 1.000
63.540 406.000 1.000
63.560 415.000 1.000
63.580 429.000 1.000
63.600 426.000 1.000
63.620 394.000 1.000
63.640 445.000 1.000
63.660 393.000 1.000
63.680 418.000 1.000
63.700 446.000 1.000
63.720 419.000 1.000
63.740 396.000 1.000
63.760 419.000 1.000
63.780 419.000 1.000
63.800 411.000 1.000
63.820 426.000 1.000
63.840 420.000 1.000
63.860 434.000 1.000
63.880 429.000 1.000
63.900 436.000 1.000
63.920 438.000 1.000
63.940 423.000 1.000
63.960 451.000 1.000
63.980 440.000 1.000
64.000 462.000 1.000
64.020 473.000 1.000
64.040 450.000 1.000
64.060 435.000 1.000
64.080 446.000 1.000
64.100 424.000 1.000
64.120 443.000 1.000
64.140 446.000 1.000
64.160 460.000 1.000
64.180 437.000 1.000
64.200 431.000 1.000
64.220 407.000 1.000
64.240 412.000 1.000
64.260 418.000 1.000
64.280 378.000 1.000
64.300 382.000 1.000
64.320 420.000 1.000
64.340 431.000 1.000
64.360 426.000 1.000
64.380 381.000 1.000
64.400 391.000 1.000
64.420 406.000 1.000
64.440 410.000 1.000
64.460 407.000 1.000
64.480 419.000 1.000
64.500 406.000 1.000
64.520 381.000 1.000
64.540 376.000 1.000
64.560 377.000 1.000
64.580 358.000 1.000
64.600 388.000 1.000
64.620 374.000 1.000
64.640 395.000 1.000
64.660 412.000 1.000
64.680 396.000 1.000
64.700 430.000 1.000
64.720 411.000 1.000
64.740 461.000 1.000
64.760 445.000 1.000
64.780 465.000 1.000
64.800 450.000 1.000
64.820 469.000 1.000
64.840 494.000 1.000
64.860 462.000 1.000
64.880 488.000 1.000
64.900 459.000 1.000
64.920 492.000 1.000
64.940 470.000 1.000
64.960 498.000 1.000
64.980 494.000 1.000
65.000 487.000 1.000
65.020 439.000 1.000
65.040 496.000 1.000
65.060 491.000 1.000
65.080 527.000 1.000
65.100 501.000 1.000
65.120 491.000 1.000
65.140 498.000 1.000
65.160 485.000 1.000
65.180 524.000 1.000
65.200 511.000 1.000
65.220 496.000 1.000
65.240 484.000 1.000
65.260 446.000 1.000
65.280 462.000 1.000
65.300 460.000 1.000
65.320 502.000 1.000
65.340 452.000 1.000
65.360 458.000 1.000
65.380 473.000 1.000
65.400 447.000 1.000
65.420 456.000 1.000
65.440 438.000 1.000
65.460 433.000 1.000
65.480 381.000 1.000
65.500 409.000 1.000
65.520 412.000 1.000
65.540 411.000 1.000
65.560 447.000 1.000
65.580 410.000 1.000
65.600 440.000 1.000
65.620 401.000 1.000
65.640 372.000 1.000
65.660 369.000 1.000
65.680 452.000 1.000
65.700 389.000 1.000
65.720 404.000 1.000
65.740 403.000 1.000
65.760 380.000 1.000
65.780 385.000 1.000
65.800 405.000 1.000
65.820 402.000 1.000
65.840 416.000 1.000
65.860 420.000 1.000
65.880 405.000 1.000
65.900 397.000 1.000
65.920 387.000 1.000
65.940 356.000 1.000
65.960 380.000 1.000
65.980 340.000 1.000
66.000 378.000 1.000
66.020 396.000 1.000
66.040 375.000 1.000
66.060 414.000 1.000
66.080 416.000 1.000
66.100 399.000 1.000
66.120 404.000 1.000
66.140 384.000 1.000
66.160 415.000 1.000
66.180 395.000 1.000
66.200 402.000 1.000
66.220 398.000 1.000
66.240 392.000 1.000
66.260 422.000 1.000
66.280 430.000 1.000
66.300 431.000 1.000
66.320 408.000 1.000
66.340 429.000 1.000
66.360 384.000 1.000
66.380 425.000 1.000
66.400 424.000 1.000
66.420 408.000 1.000
66.440 411.000 1.000
66.460 405.000 1.000
66.480 389.000 1.000
66.500 382.000 1.000
66.520 392.000 1.000
66.540 390.000 1.000
66.560 365.000 1.000
66.580 386.000 1.000
66.600 362.000 1.000
66.620 381.000 1.000
66.640 366.000 1.000
66.660 373.000 1.000
66.680 366.000 1.000
66.700 374.000 1.000
66.720 387.000 1.000
66.740 357.000 1.000
66.760 382.000 1.000
66.780 378.000 1.000
66.800 381.000 1.000
66.820 380.000 1.000
66.840 369.000 1.000
66.860 395.000 1.000
66.880 392.000 1.000
66.900 382.000 1.000
66.920 363.000 1.000
66.940 370.000 1.000
66.960 386.000 1.000
66.980 369.000 1.000
67.000 375.000 1.000
67.020 397.000 1.000
67.040 361.000 1.000
67.060 368.000 1.000
67.080 354.000 1.000
67.100 387.000 1.000
67.120 375.000 1.000
67.140 377.000 1.000
67.160 379.000 1.000
67.180 369.000 1.000
67.200 397.000 1.000
67.220 367.000 1.000
67.240 377.000 1.000
67.260 366.000 1.000
67.280 360.000 1.000
67.300 363.000 1.000
67.320 360.000 1.000
67.340 396.000 1.000
67.360 369.000 1.000
67.380 358.000 1.000
67.400 383.000 1.000
67.420 385.000 1.000
67.440 364.000 1.000
67.460 376.000 1.000
67.480 347.000 1.000
67.500 371.000 1.000
67.520 369.000 1.000
67.540 369.000 1.000
67.560 371.000 1.000
67.580 352.000 1.000
67.600 377.000 1.000
67.620 359.000 1.000
67.640 366.000 1.000
67.660 350.000 1.000
67.680 347.000 1.000
67.700 355.000 1.000
67.720 354.000 1.000
67.740 347.000 1.000
67.760 361.000 1.000
67.780 380.000 1.000
67.800 386.000 1.000
67.820 350.000 1.000
67.840 371.000 1.000
67.860 389.000 1.000
67.880 360.000 1.000
67.900 371.000 1.000
67.920 363.000 1.000
67.940 389.000 1.000
67.960 378.000 1.000
67.980 369.000 1.000
68.000 356.000 1.000
68.020 364.000 1.000
68.040 379.000 1.000
68.060 352.000 1.000
68.080 339.000 1.000
68.100 391.000 1.000
68.120 351.000 1.000
68.140 360.000 1.000
68.160 336.000 1.000
68.180 336.000 1.000
68.200 385.000 1.000
68.220 350.000 1.000
68.240 357.000 1.000
68.260 363.000 1.000
68.280 368.000 1.000
68.300 365.000 1.000
68.320 340.000 1.000
68.340 369.000 1.000
68.360 355.000 1.000
68.380 366.000 1.000
68.400 343.000 1.000
68.420 342.000 1.000
68.440 348.000 1.000
68.460 334.000 1.000
68.480 372.000 1.000
68.500 343.000 1.000
68.520 350.000 1.000
68.540 334.000 1.000
68.560 325.000 1.000
68.580 349.000 1.000
68.600 324.000 1.000
68.620 347.000 1.000
68.640 347.000 1.000
68.660 342.000 1.000
68.680 370.000 1.000
68.700 338.000 1.000
68.720 330.000 1.000
68.740 337.000 1.000
68.760 314.000 1.000
68.780 336.000 1.000
68.800 356.000 1.000
68.820 346.000 1.000
68.840 357.000 1.000
68.860 381.000 1.000
68.880 354.000 1.000
68.900 356.000 1.000
68.920 374.000 1.000
68.940 371.000 1.000
68.960 358.000 1.000
68.980 356.000 1.000
69.000 341.000 1.000
69.020 394.000 1.000
69.040 372.000 1.000
69.060 387.000 1.000
69.080 386.000 1.000
69.100 371.000 1.000
69.120 358.000 1.000
69.140 384.000 1.000
69.160 400.000 1.000
69.180 415.000 1.000
69.200 355.000 1.000
69.220 356.000 1.000
69.240 365.000 1.000
69.260 354.000 1.000
69.280 379.000 1.000
69.300 377.000 1.000
69.320 382.000 1.000
69.340 332.000 1.000
69.360 334.000 1.000
69.380 372.000 1.000
69.400 335.000 1.000
69.420 338.000 1.000
69.440 351.000 1.000
69.460 349.000 1.000
69.480 361.000 1.000
69.500 331.000 1.000
69.520 363.000 1.000
69.540 366.000 1.000
69.560 342.000 1.000
69.580 383.000 1.000
69.600 374.000 1.000
69.620 351.000 1.000
69.640 354.000 1.000
69.660 355.000 1.000
69.680 371.000 1.000
69.700 365.000 1.000
69.720 367.000 1.000
69.740 382.000 1.000
69.760 381.000 1.000
69.780 392.000 1.000
69.800 389.000 1.000
69.820 375.000 1.000
69.840 391.000 1.000
69.860 357.000 1.000
69.880 368.000 1.000
69.900 372.000 1.000
69.920 392.000 1.000
69.940 396.000 1.000
69.960 377.000 1.000
69.980 385.000 1.000
70.000 422.000 1.000
70.020 405.000 1.000
70.040 396.000 1.000
70.060 386.000 1.000
70.080 396.000 1.000
70.100 398.000 1.000
70.120 393.000 1.000
70.140 391.000 1.000
70.160 406.000 1.000
70.180 382.000 1.000
70.200 397.000 1.000
70.220 380.000 1.000
70.240 384.000 1.000
70.260 366.000 1.000
70.280 383.000 1.000
70.300 395.000 1.000
70.320 400.000 1.000
70.340 379.000 1.000
70.360 368.000 1.000
70.380 385.000 1.000
70.400 373.000 1.000
70.420 403.000 1.000
70.440 397.000 1.000
70.460 373.000 1.000
70.480 394.000 1.000
70.500 357.000 1.000
70.520 340.000 1.000
70.540 363.000 1.000
70.560 390.000 1.000
70.580 431.000 1.000
70.600 402.000 1.000
70.620 382.000 1.000
70.640 395.000 1.000
70.660 370.000 1.000
70.680 364.000 1.000
70.700 382.000 1.000
70.720 373.000 1.000
70.740 367.000 1.000
70.760 387.000 1.000
70.780 380.000 1.000
70.800 396.000 1.000
70.820 391.000 1.000
70.840 344.000 1.000
70.860 383.000 1.000
70.880 389.000 1.000
70.900 365.000 1.000
70.920 358.000 1.000
70.940 412.000 1.000
70.960 383.000 1.000
70.980 419.000 1.000
71.000 379.000 1.000
71.020 393.000 1.000
71.040 399.000 1.000
71.060 387.000 1.000
71.080 401.000 1.000
71.100 373.000 1.000
71.120 360.000 1.000
71.140 374.000 1.000
71.160 379.000 1.000
71.180 378.000 1.000
71.200 372.000 1.000
71.220 367.000 1.000
71.240 365.000 1.000
71.260 372.000 1.000
71.280 371.000 1.000
71.300 377.000 1.000
71.320 347.000 1.000
71.340 345.000 1.000
71.360 363.000 1.000
71.380 370.000 1.000
71.400 357.000 1.000
71.420 350.000 1.000
71.440 331.000 1.000
71.460 323.000 1.000
71.480 335.000 1.000
71.500 350.000 1.000
71.520 331.000 1.000
71.540 362.000 1.000
71.560 370.000 1.000
71.580 350.000 1.000
71.600 336.000 1.000
71.620 369.000 1.000
71.640 367.000 1.000
71.660 330.000 1.000
71.680 337.000 1.000
71.700 364.000 1.000
71.720 334.000 1.000
71.740 321.000 1.000
71.760 297.000 1.000
71.780 356.000 1.000
71.800 341.000 1.000
71.820 345.000 1.000
71.840 349.000 1.000
71.860 313.000 1.000
71.880 320.000 1.000
71.900 311.000 1.000
71.920 349.000 1.000
71.940 314.000 1.000
71.960 324.000 1.000
71.980 366.000 1.000
72.000 321.000 1.000
72.020 349.000 1.000
72.040 309.000 1.000
72.060 338.000 1.000
72.080 329.000 1.000
72.100 347.000 1.000
72.120 313.000 1.000
72.140 336.000 1.000
72.160 331.000 1.000
72.180 297.000 1.000
72.200 322.000 1.000
72.220 343.000 1.000
72.240 359.000 1.000
72.260 358.000 1.000
72.280 366.000 1.000
72.300 342.000 1.000
72.320 304.000 1.000
72.340 312.000 1.000
72.360 321.000 1.000
72.380 329.000 1.000
72.400 332.000 1.000
72.420 359.000 1.000
72.440 337.000 1.000
72.460 334.000 1.000
72.480 361.000 1.000
72.500 356.000 1.000
72.520 347.000 1.000
72.540 349.000 1.000
72.560 358.000 1.000
72.580 351.000 1.000
72.600 355.000 1.000
72.620 346.000 1.000
72.640 351.000 1.000
72.660 350.000 1.000
72.680 346.000 1.000
72.700 361.000 1.000
72.720 360.000 1.000
72.740 348.000 1.000
72.760 355.000 1.000
72.780 393.000 1.000
72.800 358.000 1.000
72.820 353.000 1.000
72.840 342.000 1.000
72.860 353.000 1.000
72.880 382.000 1.000
72.900 359.000 1.000
72.920 385.000 1.000
72.940 373.000 1.000
72.960 370.000 1.000
72.980 361.000 1.000
73.000 345.000 1.000
73.020 341.000 1.000
73.040 382.000 1.000
73.060 378.000 1.000
73.080 383.000 1.000
73.100 394.000 1.000
73.120 387.000 1.000
73.140 357.000 1.000
73.160 366.000 1.000
73.180 366.000 1.000
73.200 373.000 1.000
73.220 383.000 1.000
73.240 377.000 1.000
73.260 371.000 1.000
73.280 362.000 1.000
73.300 354.000 1.000
73.320 339.000 1.000
73.340 367.000 1.000
73.360 352.000 1.000
73.380 328.000 1.000
73.400 343.000 1.000
73.420 349.000 1.000
73.440 356.000 1.000
73.460 350.000 1.000
73.480 376.000 1.000
73.500 360.000 1.000
73.520 362.000 1.000
73.540 358.000 1.000
73.560 360.000 1.000
73.580 355.000 1.000
73.600 387.000 1.000
73.620 337.000 1.000
73.640 366.000 1.000
73.660 375.000 1.000
73.680 371.000 1.000
73.700 376.000 1.000
73.720 363.000 1.000
73.740 364.000 1.000
73.760 371.000 1.000
73.780 343.000 1.000
73.800 353.000 1.000
73.820 355.000 1.000
73.840 361.000 1.000
73.860 354.000 1.000
73.880 313.000 1.000
73.900 344.000 1.000
73.920 328.000 1.000
73.940 349.000 1.000
73.960 337.000 1.000
73.980 388.000 1.000
74.000 336.000 1.000
74.020 313.000 1.000
74.040 313.000 1.000
74.060 334.000 1.000
74.080 342.000 1.000
74.100 358.000 1.000
74.120 342.000 1.000
74.140 348.000 1.000
74.160 310.000 1.000
74.180 297.000 1.000
74.200 302.000 1.000
74.220 333.000 1.000
74.240 344.000 1.000
74.260 335.000 1.000
74.280 325.000 1.000
74.300 305.000 1.000
74.320 319.000 1.000
74.340 319.000 1.000
74.360 318.000 1.000
74.380 339.000 1.000
74.400 306.000 1.000
74.420 316.000 1.000
74.440 337.000 1.000
74.460 343.000 1.000
74.480 343.000 1.000
74.500 336.000 1.000
74.520 348.000 1.000
74.540 341.000 1.000
74.560 337.000 1.000
74.580 315.000 1.000
74.600 294.000 1.000
74.620 304.000 1.000
74.640 337.000 1.000
74.660 329.000 1.000
74.680 286.000 1.000
74.700 331.000 1.000
74.720 317.000 1.000
74.740 307.000 1.000
74.760 329.000 1.000
74.780 340.000 1.000
74.800 300.000 1.000
74.820 326.000 1.000
74.840 324.000 1.000
74.860 312.000 1.000
74.880 351.000 1.000
74.900 347.000 1.000
74.920 337.000 1.000
74.940 318.000 1.000
74.960 295.000 1.000
74.980 327.000 1.000
75.000 324.000 1.000
75.020 312.000 1.000
75.040 304.000 1.000
75.060 339.000 1.000
75.080 323.000 1.000
75.100 315.000 1.000
75.120 337.000 1.000
75.140 308.000 1.000
75.160 317.000 1.000
75.180 297.000 1.000
75.200 311.000 1.000
75.220 292.000 1.000
75.240 278.000 1.000
75.260 302.000 1.000
75.280 317.000 1.000
75.300 302.000 1.000
75.320 294.000 1.000
75.340 297.000 1.000
75.360 324.000 1.000
75.380 296.000 1.000
75.400 310.000 1.000
75.420 301.000 1.000
75.440 277.000 1.000
75.460 302.000 1.000
75.480 303.000 1.000
75.500 310.000 1.000
75.520 319.000 1.000
75.540 319.000 1.000
75.560 317.000 1.000
75.580 300.000 1.000
75.600 286.000 1.000
75.620 309.000 1.000
75.640 315.000 1.000
75.660 312.000 1.000
75.680 327.000 1.000
75.700 343.000 1.000
75.720 331.000 1.000
75.740 340.000 1.000
75.760 331.000 1.000
75.780 335.000 1.000
75.800 319.000 1.000
75.820 328.000 1.000
75.840 298.000 1.000
75.860 312.000 1.000
75.880 336.000 1.000
75.900 374.000 1.000
75.920 354.000 1.000
75.940 346.000 1.000
75.960 378.000 1.000
75.980 360.000 1.000
76.000 348.000 1.000
76.020 347.000 1.000
76.040 335.000 1.000
76.060 393.000 1.000
76.080 340.000 1.000
76.100 380.000 1.000
76.120 387.000 1.000
76.140 343.000 1.000
76.160 372.000 1.000
76.180 370.000 1.000
76.200 376.000 1.000
76.220 383.000 1.000
76.240 414.000 1.000
76.260 377.000 1.000
76.280 406.000 1.000
76.300 377.000 1.000
76.320 377.000 1.000
76.340 344.000 1.000
76.360 367.000 1.000
76.380 391.000 1.000
76.400 386.000 1.000
76.420 374.000 1.000
76.440 371.000 1.000
76.460 408.000 1.000
76.480 394.000 1.000
76.500 405.000 1.000
76.520 373.000 1.000
76.540 382.000 1.000
76.560 331.000 1.000
76.580 344.000 1.000
76.600 342.000 1.000
76.620 360.000 1.000
76.640 351.000 1.000
76.660 361.000 1.000
76.680 321.000 1.000
76.700 333.000 1.000
76.720 385.000 1.000
76.740 357.000 1.000
76.760 347.000 1.000
76.780 349.000 1.000
76.800 344.000 1.000
76.820 333.000 1.000
76.840 360.000 1.000
76.860 359.000 1.000
76.880 362.000 1.000
76.900 312.000 1.000
76.920 347.000 1.000
76.940 345.000 1.000
76.960 328.000 1.000
76.980 354.000 1.000
77.000 370.000 1.000
77.020 352.000 1.000
77.040 337.000 1.000
77.060 353.000 1.000
77.080 362.000 1.000
77.100 350.000 1.000
77.120 316.000 1.000
77.140 319.000 1.000
77.160 361.000 1.000
77.180 339.000 1.000
77.200 355.000 1.000
77.220 382.000 1.000
77.240 356.000 1.000
77.260 367.000 1.000
77.280 377.000 1.000
77.300 381.000 1.000
77.320 377.000 1.000
77.340 395.000 1.000
77.360 355.000 1.000
77.380 324.000 1.000
77.400 368.000 1.000
77.420 363.000 1.000
77.440 353.000 1.000
77.460 415.000 1.000
77.480 405.000 1.000
77.500 348.000 1.000
77.520 345.000 1.000
77.540 373.000 1.000
77.560 372.000 1.000
77.580 368.000 1.000
77.600 363.000 1.000
77.620 349.000 1.000
77.640 349.000 1.000
77.660 395.000 1.000
77.680 392.000 1.000
77.700 348.000 1.000
77.720 393.000 1.000
77.740 414.000 1.000
77.760 364.000 1.000
77.780 373.000 1.000
77.800 347.000 1.000
77.820 342.000 1.000
77.840 324.000 1.000
77.860 339.000 1.000
77.880 352.000 1.000
77.900 368.000 1.000
77.920 359.000 1.000
77.940 333.000 1.000
77.960 335.000 1.000
77.980 338.000 1.000
78.000 335.000 1.000
78.020 303.000 1.000
78.040 322.000 1.000
78.060 323.000 1.000
78.080 319.000 1.000
78.100 309.000 1.000
78.120 316.000 1.000
78.140 337.000 1.000
78.160 311.000 1.000
78.180 322.000 1.000
78.200 348.000 1.000
78.220 337.000 1.000
78.240 309.000 1.000
78.260 326.000 1.000
78.280 339.000 1.000
78.300 317.000 1.000
78.320 301.000 1.000
78.340 316.000 1.000
78.360 320.000 1.000
78.380 327.000 1.000
78.400 327.000 1.000
78.420 314.000 1.000
78.440 326.000 1.000
78.460 352.000 1.000
78.480 350.000 1.000
78.500 321.000 1.000
78.520 332.000 1.000
78.540 323.000 1.000
78.560 337.000 1.000
78.580 326.000 1.000
78.600 325.000 1.000
78.620 329.000 1.000
78.640 356.000 1.000
78.660 354.000 1.000
78.680 330.000 1.000
78.700 342.000 1.000
78.720 366.000 1.000
78.740 351.000 1.000
78.760 367.000 1.000
78.780 352.000 1.000
78.800 348.000 1.000
78.820 352.000 1.000
78.840 386.000 1.000
78.860 369.000 1.000
78.880 365.000 1.000
78.900 395.000 1.000
78.920 381.000 1.000
78.940 402.000 1.000
78.960 410.000 1.000
78.980 407.000 1.000
79.000 386.000 1.000
79.020 381.000 1.000
79.040 407.000 1.000
79.060 361.000 1.000
79.080 367.000 1.000
79.100 395.000 1.000
79.120 395.000 1.000
79.140 414.000 1.000
79.160 384.000 1.000
79.180 377.000 1.000
79.200 397.000 1.000
79.220 372.000 1.000
79.240 404.000 1.000
79.260 390.000 1.000
79.280 382.000 1.000
79.300 380.000 1.000
79.320 386.000 1.000
79.340 393.000 1.000
79.360 380.000 1.000
79.380 399.000 1.000
79.400 380.000 1.000
79.420 352.000 1.000
79.440 343.000 1.000
79.460 342.000 1.000
79.480 376.000 1.000
79.500 351.000 1.000
79.520 354.000 1.000
79.540 337.000 1.000
79.560 337.000 1.000
79.580 379.000 1.000
79.600 347.000 1.000
79.620 312.000 1.000
79.640 326.000 1.000
79.660 323.000 1.000
79.680 385.000 1.000
79.700 338.000 1.000
79.720 338.000 1.000
79.740 343.000 1.000
79.760 353.000 1.000
79.780 341.000 1.000
79.800 342.000 1.000
79.820 340.000 1.000
79.840 370.000 1.000
79.860 325.000 1.000
79.880 365.000 1.000
79.900 319.000 1.000
79.920 324.000 1.000
79.940 335.000 1.000
79.960 325.000 1.000
79.980 348.000 1.000
80.000 335.000 1.000
80.020 334.000 1.000
80.040 353.000 1.000
80.060 331.000 1.000
80.080 349.000 1.000
80.100 368.000 1.000
80.120 349.000 1.000
80.140 315.000 1.000
80.160 356.000 1.000
80.180 323.000 1.000
80.200 326.000 1.000
80.220 318.000 1.000
80.240 323.000 1.000
80.260 317.000 1.000
80.280 349.000 1.000
80.300 342.000 1.000
80.320 315.000 1.000
80.340 312.000 1.000
80.360 323.000 1.000
80.380 290.000 1.000
80.400 324.000 1.000
80.420 302.000 1.000
80.440 311.000 1.000
80.460 328.000 1.000
80.480 319.000 1.000
80.500 341.000 1.000
80.520 290.000 1.000
80.540 334.000 1.000
80.560 348.000 1.000
80.580 347.000 1.000
80.600 307.000 1.000
80.620 366.000 1.000
80.640 321.000 1.000
80.660 355.000 1.000
80.680 344.000 1.000
80.700 325.000 1.000
80.720 330.000 1.000
80.740 355.000 1.000
80.760 330.000 1.000
80.780 301.000 1.000
80.800 325.000 1.000
80.820 347.000 1.000
80.840 353.000 1.000
80.860 354.000 1.000
80.880 322.000 1.000
80.900 354.000 1.000
80.920 315.000 1.000
80.940 346.000 1.000
80.960 351.000 1.000
80.980 310.000 1.000
81.000 347.000 1.000
81.020 302.000 1.000
81.040 332.000 1.000
81.060 328.000 1.000
81.080 329.000 1.000
81.100 372.000 1.000
81.120 346.000 1.000
81.140 324.000 1.000
81.160 335.000 1.000
81.180 369.000 1.000
81.200 320.000 1.000
81.220 345.000 1.000
81.240 317.000 1.000
81.260 331.000 1.000
81.280 342.000 1.000
81.300 306.000 1.000
81.320 305.000 1.000
81.340 335.000 1.000
81.360 332.000 1.000
81.380 296.000 1.000
81.400 319.000 1.000
81.420 306.000 1.000
81.440 322.000 1.000
81.460 302.000 1.000
81.480 312.000 1.000
81.500 337.000 1.000
81.520 292.000 1.000
81.540 301.000 1.000
81.560 299.000 1.000
81.580 303.000 1.000
81.600 290.000 1.000
81.620 276.000 1.000
81.640 309.000 1.000
81.660 302.000 1.000
81.680 322.000 1.000
81.700 336.000 1.000
81.720 287.000 1.000
81.740 278.000 1.000
81.760 308.000 1.000
81.780 285.000 1.000
81.800 305.000 1.000
81.820 279.000 1.000
81.840 290.000 1.000
81.860 270.000 1.000
81.880 265.000 1.000
81.900 299.000 1.000
81.920 297.000 1.000
81.940 291.000 1.000
81.960 299.000 1.000
81.980 281.000 1.000
82.000 296.000 1.000
82.020 279.000 1.000
82.040 287.000 1.000
82.060 281.000 1.000
82.080 292.000 1.000
82.100 288.000 1.000
82.120 260.000 1.000
82.140 279.000 1.000
82.160 283.000 1.000
82.180 287.000 1.000
82.200 281.000 1.000
82.220 310.000 1.000
82.240 309.000 1.000
82.260 299.000 1.000
82.280 306.000 1.000
82.300 308.000 1.000
82.320 333.000 1.000
82.340 292.000 1.000
82.360 300.000 1.000
82.380 260.000 1.000
82.400 286.000 1.000
82.420 303.000 1.000
82.440 278.000 1.000
82.460 290.000 1.000
82.480 296.000 1.000
82.500 328.000 1.000
82.520 317.000 1.000
82.540 296.000 1.000
82.560 306.000 1.000
82.580 292.000 1.000
82.600 298.000 1.000
82.620 279.000 1.000
82.640 276.000 1.000
82.660 294.000 1.000
82.680 281.000 1.000
82.700 294.000 1.000
82.720 301.000 1.000
82.740 304.000 1.000
82.760 276.000 1.000
82.780 317.000 1.000
82.800 275.000 1.000
82.820 300.000 1.000
82.840 284.000 1.000
82.860 262.000 1.000
82.880 267.000 1.000
82.900 255.000 1.000
82.920 266.000 1.000
82.940 274.000 1.000
82.960 275.000 1.000
82.980 294.000 1.000
83.000 320.000 1.000
83.020 298.000 1.000
83.040 301.000 1.000
83.060 305.000 1.000
83.080 283.000 1.000
83.100 272.000 1.000
83.120 287.000 1.000
83.140 299.000 1.000
83.160 287.000 1.000
83.180 251.000 1.000
83.200 257.000 1.000
83.220 272.000 1.000
83.240 271.000 1.000
83.260 298.000 1.000
83.280 264.000 1.000
83.300 276.000 1.000
83.320 270.000 1.000
83.340 269.000 1.000
83.360 307.000 1.000
83.380 279.000 1.000
83.400 283.000 1.000
83.420 309.000 1.000
83.440 310.000 1.000
83.460 290.000 1.000
83.480 281.000 1.000
83.500 306.000 1.000
83.520 280.000 1.000
83.540 270.000 1.000
83.560 273.000 1.000
83.580 265.000 1.000
83.600 278.000 1.000
83.620 298.000 1.000
83.640 278.000 1.000
83.660 304.000 1.000
83.680 289.000 1.000
83.700 275.000 1.000
83.720 288.000 1.000
83.740 297.000 1.000
83.760 290.000 1.000
83.780 272.000 1.000
83.800 280.000 1.000
83.820 245.000 1.000
83.840 282.000 1.000
83.860 280.000 1.000
83.880 253.000 1.000
83.900 276.000 1.000
83.920 297.000 1.000
83.940 288.000 1.000
83.960 302.000 1.000
83.980 277.000 1.000
84.000 276.000 1.000
84.020 294.000 1.000
84.040 282.000 1.000
84.060 279.000 1.000
84.080 278.000 1.000
84.100 272.000 1.000
84.120 296.000 1.000
84.140 287.000 1.000
84.160 269.000 1.000
84.180 290.000 1.000
84.200 300.000 1.000
84.220 307.000 1.000
84.240 276.000 1.000
84.260 295.000 1.000
84.280 286.000 1.000
84.300 265.000 1.000
84.320 244.000 1.000
84.340 286.000 1.000
84.360 268.000 1.000
84.380 273.000 1.000
84.400 264.000 1.000
84.420 267.000 1.000
84.440 279.000 1.000
84.460 254.000 1.000
84.480 290.000 1.000
84.500 279.000 1.000
84.520 291.000 1.000
84.540 259.000 1.000
84.560 282.000 1.000
84.580 266.000 1.000
84.600 276.000 1.000
84.620 278.000 1.000
84.640 260.000 1.000
84.660 271.000 1.000
84.680 260.000 1.000
84.700 265.000 1.000
84.720 291.000 1.000
84.740 308.000 1.000
84.760 271.000 1.000
84.780 260.000 1.000
84.800 274.000 1.000
84.820 274.000 1.000
84.840 262.000 1.000
84.860 273.000 1.000
84.880 273.000 1.000
84.900 288.000 1.000
84.920 273.000 1.000
84.940 288.000 1.000
84.960 298.000 1.000
84.980 298.000 1.000
85.000 281.000 1.000
85.020 303.000 1.000
85.040 284.000 1.000
85.060 263.000 1.000
85.080 295.000 1.000
85.100 284.000 1.000
85.120 269.000 1.000
85.140 253.000 1.000
85.160 279.000 1.000
85.180 310.000 1.000
85.200 271.000 1.000
85.220 265.000 1.000
85.240 244.000 1.000
85.260 261.000 1.000
85.280 260.000 1.000
85.300 263.000 1.000
85.320 269.000 1.000
85.340 281.000 1.000
85.360 280.000 1.000
85.380 266.000 1.000
85.400 280.000 1.000
85.420 279.000 1.000
85.440 267.000 1.000
85.460 255.000 1.000
85.480 243.000 1.000
85.500 277.000 1.000
85.520 255.000 1.000
85.540 252.000 1.000
85.560 252.000 1.000
85.580 261.000 1.000
85.600 241.000 1.000
85.620 259.000 1.000
85.640 252.000 1.000
85.660 263.000 1.000
85.680 275.000 1.000
85.700 248.000 1.000
85.720 245.000 1.000
85.740 245.000 1.000
85.760 267.000 1.000
85.780 274.000 1.000
85.800 246.000 1.000
85.820 260.000 1.000
85.840 254.000 1.000
85.860 289.000 1.000
85.880 253.000 1.000
85.900 284.000 1.000
85.920 286.000 1.000
85.940 265.000 1.000
85.960 270.000 1.000
85.980 271.000 1.000
86.000 268.000 1.000
86.020 292.000 1.000
86.040 286.000 1.000
86.060 275.000 1.000
86.080 283.000 1.000
86.100 240.000 1.000
86.120 283.000 1.000
86.140 262.000 1.000
86.160 258.000 1.000
86.180 255.000 1.000
86.200 290.000 1.000
86.220 260.000 1.000
86.240 251.000 1.000
86.260 267.000 1.000
86.280 246.000 1.000
86.300 260.000 1.000
86.320 277.000 1.000
86.340 311.000 1.000
86.360 273.000 1.000
86.380 247.000 1.000
86.400 254.000 1.000
86.420 271.000 1.000
86.440 260.000 1.000
86.460 291.000 1.000
86.480 280.000 1.000
86.500 287.000 1.000
86.520 258.000 1.000
86.540 265.000 1.000
86.560 261.000 1.000
86.580 274.000 1.000
86.600 267.000 1.000
86.620 275.000 1.000
86.640 268.000 1.000
86.660 259.000 1.000
86.680 260.000 1.000
86.700 258.000 1.000
86.720 255.000 1.000
86.740 289.000 1.000
86.760 261.000 1.000
86.780 270.000 1.000
86.800 274.000 1.000
86.820 279.000 1.000
86.840 281.000 1.000
86.860 296.000 1.000
86.880 271.000 1.000
86.900 259.000 1.000
86.920 242.000 1.000
86.940 282.000 1.000
86.960 248.000 1.000
86.980 257.000 1.000
87.000 284.000 1.000
87.020 258.000 1.000
87.040 241.000 1.000
87.060 271.000 1.000
87.080 285.000 1.000
87.100 252.000 1.000
87.120 266.000 1.000
87.140 254.000 1.000
87.160 252.000 1.000
87.180 254.000 1.000
87.200 297.000 1.000
87.220 264.000 1.000
87.240 266.000 1.000
87.260 264.000 1.000
87.280 267.000 1.000
87.300 297.000 1.000
87.320 277.000 1.000
87.340 261.000 1.000
87.360 264.000 1.000
87.380 273.000 1.000
87.400 265.000 1.000
87.420 259.000 1.000
87.440 273.000 1.000
87.460 266.000 1.000
87.480 262.000 1.000
87.500 263.000 1.000
87.520 271.000 1.000
87.540 264.000 1.000
87.560 253.000 1.000
87.580 263.000 1.000
87.600 283.000 1.000
87.620 277.000 1.000
87.640 284.000 1.000
87.660 293.000 1.000
87.680 270.000 1.000
87.700 260.000 1.000
87.720 292.000 1.000
87.740 291.000 1.000
87.760 294.000 1.000
87.780 287.000 1.000
87.800 245.000 1.000
87.820 255.000 1.000
87.840 287.000 1.000
87.860 311.000 1.000
87.880 288.000 1.000
87.900 269.000 1.000
87.920 277.000 1.000
87.940 274.000 1.000
87.960 243.000 1.000
87.980 292.000 1.000
88.000 286.000 1.000
88.020 294.000 1.000
88.040 263.000 1.000
88.060 254.000 1.000
88.080 268.000 1.000
88.100 270.000 1.000
88.120 254.000 1.000
88.140 287.000 1.000
88.160 270.000 1.000
88.180 265.000 1.000
88.200 291.000 1.000
88.220 274.000 1.000
88.240 263.000 1.000
88.260 267.000 1.000
88.280 271.000 1.000
88.300 288.000 1.000
88.320 276.000 1.000
88.340 276.000 1.000
88.360 300.000 1.000
88.380 284.000 1.000
88.400 285.000 1.000
88.420 274.000 1.000
88.440 274.000 1.000
88.460 282.000 1.000
88.480 286.000 1.000
88.500 258.000 1.000
88.520 249.000 1.000
88.540 246.000 1.000
88.560 252.000 1.000
88.580 274.000 1.000
88.600 270.000 1.000
88.620 260.000 1.000
88.640 293.000 1.000
88.660 276.000 1.000
88.680 292.000 1.000
88.700 272.000 1.000
88.720 281.000 1.000
88.740 264.000 1.000
88.760 290.000 1.000
88.780 274.000 1.000
88.800 267.000 1.000
88.820 260.000 1.000
88.840 271.000 1.000
88.860 267.000 1.000
88.880 270.000 1.000
88.900 268.000 1.000
88.920 269.000 1.000
88.940 272.000 1.000
88.960 298.000 1.000
88.980 303.000 1.000
89.000 258.000 1.000
89.020 273.000 1.000
89.040 276.000 1.000
89.060 286.000 1.000
89.080 280.000 1.000
89.100 300.000 1.000
89.120 278.000 1.000
89.140 306.000 1.000
89.160 270.000 1.000
89.180 271.000 1.000
89.200 293.000 1.000
89.220 294.000 1.000
89.240 251.000 1.000
89.260 275.000 1.000
89.280 276.000 1.000
89.300 260.000 1.000
89.320 292.000 1.000
89.340 296.000 1.000
89.360 276.000 1.000
89.380 260.000 1.000
89.400 286.000 1.000
89.420 312.000 1.000
89.440 297.000 1.000
89.460 261.000 1.000
89.480 262.000 1.000
89.500 270.000 1.000
89.520 297.000 1.000
89.540 283.000 1.000
89.560 294.000 1.000
89.580 309.000 1.000
89.600 289.000 1.000
89.620 276.000 1.000
89.640 276.000 1.000
89.660 287.000 1.000
89.680 291.000 1.000
89.700 323.000 1.000
89.720 314.000 1.000
89.740 308.000 1.000
89.760 280.000 1.000
89.780 257.000 1.000
89.800 264.000 1.000
89.820 288.000 1.000
89.840 285.000 1.000
89.860 298.000 1.000
89.880 332.000 1.000
89.900 317.000 1.000
89.920 280.000 1.000
89.940 297.000 1.000
89.960 290.000 1.000
89.980 279.000 1.000
90.000 282.000 1.000
*RAS_INT_END
*RAS_DATA_END
