*RAS_DATA_START
*RAS_HEADER_START
*DISP_FMT_X "%.2f"
*DISP_FMT_Y "%.0f"
*DISP_FULLSCALE "76370.0000000000"
*DISP_LINE_COLOR "255.0000000000"
*DISP_LINE_STYLE "0.0000000000"
*DISP_LINE_WIDTH "0.2500000000"
*DISP_NOTE "Collected Data-97"
*DISP_OFFSET_Y "0.0000000000"
*DISP_PEAKSEARCH_UNIT_Y "cps"
*DISP_RANGE_BOTTOM "0.0000000000"
*DISP_RANGE_LEFT "3.0000000000"
*DISP_RANGE_LOGCUTOFF "0.0100000000"
*DISP_RANGE_RIGHT "90.0000000000"
*DISP_RANGE_TOP "76370.0000000000"
*DISP_SCALE_MODE_Y "0.0000000000"
*DISP_TAB_NAME "Theta/2-Theta"
*DISP_TITLE_Y "Intensity"
*DISP_UNIT_Y "cps"
*DISP_WINDOW_NAME "MSG_MACROENGINE"
*FILE_COMMENT " "
*FILE_MD5 ""
*FILE_MEMO " "
*FILE_OPERATOR "Administrator"
*FILE_SAMPLE " "
*FILE_TYPE "RAS_RAW"
*FILE_USERGROUP "System Manager"
*FILE_VERSION "1.0000000000"
*HW_ATTACHMENT_ID "ATT1031"
*HW_ATTACHMENT_NAME "6サンプルチェンジャ|ASC-6"
*HW_COUNTER_ID-0 "CUT0025"
*HW_COUNTER_ID-1 "CUT0020"
*HW_COUNTER_ID-2 "CUT0020"
*HW_COUNTER_ID-3 "CMC0021"
*HW_COUNTER_NAME-0 "D/teX Ultra|D/teX Ultra"
*HW_COUNTER_NAME-1 "None|None"
*HW_COUNTER_NAME-2 "None|None"
*HW_COUNTER_NAME-3 "検出器モノクロメータ|Detector monochromator"
*HW_COUNTER_SELECT_NAME "D/teX Ultra|D/teX Ultra"
*HW_GONIOMETER_ID "GON0070"
*HW_GONIOMETER_NAME "MiniFlex 300/600|MiniFlex 300/600"
*HW_GONIOMETER_RADIUS-0 "79.0"
*HW_GONIOMETER_RADIUS-1 "91.5"
*HW_GONIOMETER_RADIUS-2 "150.0"
*HW_GONIOMETER_RADIUS-3 "0"
*HW_GONIOMETER_RADIUS-4 "103.4"
*HW_GONIOMETER_RADIUS-5 "150.0"
*HW_GONIOMETER_RADIUS-6 "46.6"
*HW_GONIOMETER_RADIUS-7 "160.0"
*HW_I_OPT_ID-0 "ISL0021"
*HW_I_OPT_ID-1 "ISO0021"
*HW_I_OPT_NAME-0 "発散スリット|Divergence slit"
*HW_I_OPT_NAME-1 "入射平行スリット|Incident parallel slit"
*HW_R_ATTENUATER_AUTOMODE "0"
*HW_R_OPT_ID-0 "RSS0021"
*HW_R_OPT_ID-1 "RSO0021"
*HW_R_OPT_ID-2 "RRS0021"
*HW_R_OPT_NAME-0 "散乱スリット|Scattering slit"
*HW_R_OPT_NAME-1 "受光平行スリット|Receiving soller slit"
*HW_R_OPT_NAME-2 "受光スリット|Receiving slit"
*HW_SAMPLE_HOLDER_ID "SMP0000"
*HW_SAMPLE_HOLDER_NAME "無し|None"
*HW_XG_CURRENT_MAX "15"
*HW_XG_CURRENT_MIN "2"
*HW_XG_CURRENT_RESOLUTION "1"
*HW_XG_CURRENT_UNIT "mA"
*HW_XG_FOCUS "1mm x 10mm"
*HW_XG_FOCUS_TYPE "Normal"
*HW_XG_ID ""
*HW_XG_NAME "300W/600W 封入管-B|300W/600W Sealed tube-B"
*HW_XG_TARGET_ATOMIC_NUMBER "29.0000000000"
*HW_XG_TARGET_NAME "Cu"
*HW_XG_TYPE "Hermetic"
*HW_XG_VOLTAGE_MAX "40"
*HW_XG_VOLTAGE_MIN "20"
*HW_XG_VOLTAGE_RESOLUTION "1"
*HW_XG_VOLTAGE_UNIT "kV"
*HW_XG_WATT_MAX "0.600"
*HW_XG_WATT_UNIT "kW"
*HW_XG_WAVE_LENGTH_ALPHA1 "1.540593"
*HW_XG_WAVE_LENGTH_ALPHA2 "1.544414"
*HW_XG_WAVE_LENGTH_BETA "1.392250"
*MEAS_COND_AXIS_NAME-0 "Theta/2-Theta"
*MEAS_COND_AXIS_NAME-1 "Spin"
*MEAS_COND_AXIS_NAME-2 "Change"
*MEAS_COND_AXIS_NAME-3 "Soller(inc.)"
*MEAS_COND_AXIS_NAME-4 "IHS"
*MEAS_COND_AXIS_NAME-5 "DS"
*MEAS_COND_AXIS_NAME-6 "SS"
*MEAS_COND_AXIS_NAME-7 "Soller(rec.)"
*MEAS_COND_AXIS_NAME-8 "RS"
*MEAS_COND_AXIS_NAME-9 "Filter"
*MEAS_COND_AXIS_NAME-10 "Monochromator"
*MEAS_COND_AXIS_NAME-11 "PHA"
*MEAS_COND_AXIS_NAME_INTERNAL-0 "TwoThetaTheta"
*MEAS_COND_AXIS_NAME_INTERNAL-1 "Spin"
*MEAS_COND_AXIS_NAME_INTERNAL-2 "Change"
*MEAS_COND_AXIS_NAME_INTERNAL-3 "IncidentSollerSlit"
*MEAS_COND_AXIS_NAME_INTERNAL-4 "IncidentAxdSlit"
*MEAS_COND_AXIS_NAME_INTERNAL-5 "IncidentSlitBox"
*MEAS_COND_AXIS_NAME_INTERNAL-6 "ReceivingSlitBox1"
*MEAS_COND_AXIS_NAME_INTERNAL-7 "ReceivingSollerSlit"
*MEAS_COND_AXIS_NAME_INTERNAL-8 "ReceivingSlitBox2"
*MEAS_COND_AXIS_NAME_INTERNAL-9 "Filter"
*MEAS_COND_AXIS_NAME_INTERNAL-10 "CounterMonochromator"
*MEAS_COND_AXIS_NAME_INTERNAL-11 "PHA"
*MEAS_COND_AXIS_NAME_MAGICNO-0 "268632064.0000000000"
*MEAS_COND_AXIS_NAME_MAGICNO-1 "16842752.0000000000"
*MEAS_COND_AXIS_NAME_MAGICNO-2 "16842752.0000000000"
*MEAS_COND_AXIS_NAME_MAGICNO-3 "20971521.0000000000"
*MEAS_COND_AXIS_NAME_MAGICNO-4 "22020097.0000000000"
*MEAS_COND_AXIS_NAME_MAGICNO-5 "22020097.0000000000"
*MEAS_COND_AXIS_NAME_MAGICNO-6 "23068673.0000000000"
*MEAS_COND_AXIS_NAME_MAGICNO-7 "20971521.0000000000"
*MEAS_COND_AXIS_NAME_MAGICNO-8 "23068673.0000000000"
*MEAS_COND_AXIS_NAME_MAGICNO-9 "20971521.0000000000"
*MEAS_COND_AXIS_NAME_MAGICNO-10 "20971521.0000000000"
*MEAS_COND_AXIS_NAME_MAGICNO-11 "0.0000000000"
*MEAS_COND_AXIS_OFFSET-0 "0.0000000000"
*MEAS_COND_AXIS_OFFSET-1 "-"
*MEAS_COND_AXIS_OFFSET-2 "-"
*MEAS_COND_AXIS_OFFSET-3 "-"
*MEAS_COND_AXIS_OFFSET-4 "-"
*MEAS_COND_AXIS_OFFSET-5 "-"
*MEAS_COND_AXIS_OFFSET-6 "-"
*MEAS_COND_AXIS_OFFSET-7 "-"
*MEAS_COND_AXIS_OFFSET-8 "-"
*MEAS_COND_AXIS_OFFSET-9 "-"
*MEAS_COND_AXIS_OFFSET-10 "-"
*MEAS_COND_AXIS_OFFSET-11 "-"
*MEAS_COND_AXIS_POSITION-0 "10.0000000000"
*MEAS_COND_AXIS_POSITION-1 "1.0000000000"
*MEAS_COND_AXIS_POSITION-2 "3.0000000000"
*MEAS_COND_AXIS_POSITION-3 "5.0deg"
*MEAS_COND_AXIS_POSITION-4 "10.0mm"
*MEAS_COND_AXIS_POSITION-5 "1.250deg"
*MEAS_COND_AXIS_POSITION-6 "13.0mm"
*MEAS_COND_AXIS_POSITION-7 "5.0deg"
*MEAS_COND_AXIS_POSITION-8 "13.0mm"
*MEAS_COND_AXIS_POSITION-9 "K-beta(x1)"
*MEAS_COND_AXIS_POSITION-10 "None"
*MEAS_COND_AXIS_POSITION-11 "37.0000000000"
*MEAS_COND_AXIS_UNIT-0 "deg"
*MEAS_COND_AXIS_UNIT-1 ""
*MEAS_COND_AXIS_UNIT-2 ""
*MEAS_COND_AXIS_UNIT-3 ""
*MEAS_COND_AXIS_UNIT-4 ""
*MEAS_COND_AXIS_UNIT-5 ""
*MEAS_COND_AXIS_UNIT-6 ""
*MEAS_COND_AXIS_UNIT-7 ""
*MEAS_COND_AXIS_UNIT-8 ""
*MEAS_COND_AXIS_UNIT-9 ""
*MEAS_COND_AXIS_UNIT-10 ""
*MEAS_COND_AXIS_UNIT-11 "div"
*MEAS_COND_COUNTER_CNTLOSS_CORR "0.0000000000"
*MEAS_COND_COUNTER_PHABASE "37.0000000000"
*MEAS_COND_COUNTER_PHAWINDOW "17.0000000000"
*MEAS_COND_COUNTER_PHA_UNIT "div"
*MEAS_COND_COUNTER_TAUDIFF "0.2500000000"
*MEAS_COND_COUNTER_TAUINT "0.7500000000"
*MEAS_COND_IRRADIATION_MODE "OFF"
*MEAS_COND_IRRADIATION_WIDTH ""
*MEAS_COND_OPT_ATTR " "
*MEAS_COND_OPT_NAME ""
*MEAS_COND_UNSYMMETRIC_MODE "OFF"
*MEAS_COND_XG_CURRENT "15.0000000000"
*MEAS_COND_XG_VOLTAGE "40.0000000000"
*MEAS_COND_XG_WAVE_TYPE "Ka"
*MEAS_DATA_COUNT "4351.0000000000"
*MEAS_SCAN_AXIS_X "Theta/2-Theta"
*MEAS_SCAN_AXIS_X_INTERNAL "TwoThetaTheta"
*MEAS_SCAN_END_TIME "10/13/25 17:37:07"
*MEAS_SCAN_MODE "CONTINUOUS"
*MEAS_SCAN_MONITOR "0"
*MEAS_SCAN_RESOLUTION_X "0.005"
*MEAS_SCAN_SPEED "10.000"
*MEAS_SCAN_SPEED_UNIT "deg/min"
*MEAS_SCAN_START "3.0000000000"
*MEAS_SCAN_START_TIME "10/13/25 17:27:39"
*MEAS_SCAN_STEP "0.0200000000"
*MEAS_SCAN_STOP "90.0000000000"
*MEAS_SCAN_UNIT_X "deg"
*MEAS_SCAN_UNIT_Y "counts"
*SLIT_SYSTEM "0"
*RAS_HEADER_END
*RAS_INT_START
3.000 334.000 1.000
3.020 303.000 1.000
3.040 287.000 1.000
3.060 298.000 1.000
3.080 301.000 1.000
3.100 278.000 1.000
3.120 281.000 1.000
3.140 267.000 1.000
3.160 281.000 1.000
3.180 263.000 1.000
3.200 273.000 1.000
3.220 263.000 1.000
3.240 278.000 1.000
3.260 266.000 1.000
3.280 261.000 1.000
3.300 243.000 1.000
3.320 252.000 1.000
3.340 259.000 1.000
3.360 250.000 1.000
3.380 281.000 1.000
3.400 282.000 1.000
3.420 289.000 1.000
3.440 248.000 1.000
3.460 284.000 1.000
3.480 233.000 1.000
3.500 266.000 1.000
3.520 259.000 1.000
3.540 226.000 1.000
3.560 261.000 1.000
3.580 272.000 1.000
3.600 262.000 1.000
3.620 243.000 1.000
3.640 229.000 1.000
3.660 234.000 1.000
3.680 235.000 1.000
3.700 242.000 1.000
3.720 270.000 1.000
3.740 237.000 1.000
3.760 234.000 1.000
3.780 253.000 1.000
3.800 278.000 1.000
3.820 249.000 1.000
3.840 249.000 1.000
3.860 242.000 1.000
3.880 244.000 1.000
3.900 231.000 1.000
3.920 239.000 1.000
3.940 232.000 1.000
3.960 222.000 1.000
3.980 214.000 1.000
4.000 219.000 1.000
4.020 220.000 1.000
4.040 226.000 1.000
4.060 208.000 1.000
4.080 258.000 1.000
4.100 256.000 1.000
4.120 221.000 1.000
4.140 209.000 1.000
4.160 194.000 1.000
4.180 186.000 1.000
4.200 189.000 1.000
4.220 207.000 1.000
4.240 208.000 1.000
4.260 206.000 1.000
4.280 214.000 1.000
4.300 211.000 1.000
4.320 184.000 1.000
4.340 190.000 1.000
4.360 202.000 1.000
4.380 197.000 1.000
4.400 219.000 1.000
4.420 208.000 1.000
4.440 192.000 1.000
4.460 189.000 1.000
4.480 178.000 1.000
4.500 192.000 1.000
4.520 187.000 1.000
4.540 201.000 1.000
4.560 188.000 1.000
4.580 174.000 1.000
4.600 178.000 1.000
4.620 180.000 1.000
4.640 179.000 1.000
4.660 175.000 1.000
4.680 195.000 1.000
4.700 170.000 1.000
4.720 185.000 1.000
4.740 175.000 1.000
4.760 193.000 1.000
4.780 193.000 1.000
4.800 186.000 1.000
4.820 205.000 1.000
4.840 178.000 1.000
4.860 195.000 1.000
4.880 196.000 1.000
4.900 188.000 1.000
4.920 194.000 1.000
4.940 184.000 1.000
4.960 179.000 1.000
4.980 187.000 1.000
5.000 199.000 1.000
5.020 175.000 1.000
5.040 173.000 1.000
5.060 190.000 1.000
5.080 199.000 1.000
5.100 190.000 1.000
5.120 187.000 1.000
5.140 186.000 1.000
5.160 167.000 1.000
5.180 194.000 1.000
5.200 161.000 1.000
5.220 159.000 1.000
5.240 172.000 1.000
5.260 178.000 1.000
5.280 182.000 1.000
5.300 199.000 1.000
5.320 194.000 1.000
5.340 178.000 1.000
5.360 195.000 1.000
5.380 190.000 1.000
5.400 191.000 1.000
5.420 174.000 1.000
5.440 190.000 1.000
5.460 195.000 1.000
5.480 168.000 1.000
5.500 173.000 1.000
5.520 183.000 1.000
5.540 198.000 1.000
5.560 185.000 1.000
5.580 213.000 1.000
5.600 207.000 1.000
5.620 194.000 1.000
5.640 202.000 1.000
5.660 189.000 1.000
5.680 205.000 1.000
5.700 187.000 1.000
5.720 194.000 1.000
5.740 163.000 1.000
5.760 195.000 1.000
5.780 198.000 1.000
5.800 186.000 1.000
5.820 196.000 1.000
5.840 205.000 1.000
5.860 181.000 1.000
5.880 185.000 1.000
5.900 170.000 1.000
5.920 183.000 1.000
5.940 190.000 1.000
5.960 174.000 1.000
5.980 206.000 1.000
6.000 208.000 1.000
6.020 205.000 1.000
6.040 186.000 1.000
6.060 215.000 1.000
6.080 197.000 1.000
6.100 183.000 1.000
6.120 203.000 1.000
6.140 183.000 1.000
6.160 174.000 1.000
6.180 175.000 1.000
6.200 170.000 1.000
6.220 178.000 1.000
6.240 192.000 1.000
6.260 210.000 1.000
6.280 185.000 1.000
6.300 172.000 1.000
6.320 191.000 1.000
6.340 201.000 1.000
6.360 169.000 1.000
6.380 202.000 1.000
6.400 186.000 1.000
6.420 203.000 1.000
6.440 207.000 1.000
6.460 194.000 1.000
6.480 201.000 1.000
6.500 185.000 1.000
6.520 189.000 1.000
6.540 189.000 1.000
6.560 199.000 1.000
6.580 189.000 1.000
6.600 187.000 1.000
6.620 201.000 1.000
6.640 183.000 1.000
6.660 173.000 1.000
6.680 210.000 1.000
6.700 203.000 1.000
6.720 197.000 1.000
6.740 210.000 1.000
6.760 197.000 1.000
6.780 194.000 1.000
6.800 184.000 1.000
6.820 179.000 1.000
6.840 200.000 1.000
6.860 219.000 1.000
6.880 195.000 1.000
6.900 196.000 1.000
6.920 213.000 1.000
6.940 243.000 1.000
6.960 213.000 1.000
6.980 197.000 1.000
7.000 204.000 1.000
7.020 203.000 1.000
7.040 228.000 1.000
7.060 213.000 1.000
7.080 201.000 1.000
7.100 209.000 1.000
7.120 191.000 1.000
7.140 198.000 1.000
7.160 216.000 1.000
7.180 201.000 1.000
7.200 230.000 1.000
7.220 200.000 1.000
7.240 199.000 1.000
7.260 228.000 1.000
7.280 202.000 1.000
7.300 207.000 1.000
7.320 218.000 1.000
7.340 227.000 1.000
7.360 218.000 1.000
7.380 236.000 1.000
7.400 219.000 1.000
7.420 237.000 1.000
7.440 193.000 1.000
7.460 187.000 1.000
7.480 234.000 1.000
7.500 223.000 1.000
7.520 230.000 1.000
7.540 221.000 1.000
7.560 234.000 1.000
7.580 224.000 1.000
7.600 228.000 1.000
7.620 222.000 1.000
7.640 226.000 1.000
7.660 240.000 1.000
7.680 220.000 1.000
7.700 251.000 1.000
7.720 225.000 1.000
7.740 244.000 1.000
7.760 232.000 1.000
7.780 220.000 1.000
7.800 225.000 1.000
7.820 233.000 1.000
7.840 236.000 1.000
7.860 230.000 1.000
7.880 232.000 1.000
7.900 245.000 1.000
7.920 252.000 1.000
7.940 243.000 1.000
7.960 249.000 1.000
7.980 248.000 1.000
8.000 262.000 1.000
8.020 236.000 1.000
8.040 238.000 1.000
8.060 255.000 1.000
8.080 239.000 1.000
8.100 238.000 1.000
8.120 239.000 1.000
8.140 243.000 1.000
8.160 267.000 1.000
8.180 236.000 1.000
8.200 258.000 1.000
8.220 221.000 1.000
8.240 238.000 1.000
8.260 242.000 1.000
8.280 249.000 1.000
8.300 274.000 1.000
8.320 262.000 1.000
8.340 241.000 1.000
8.360 261.000 1.000
8.380 238.000 1.000
8.400 229.000 1.000
8.420 266.000 1.000
8.440 248.000 1.000
8.460 249.000 1.000
8.480 245.000 1.000
8.500 248.000 1.000
8.520 253.000 1.000
8.540 245.000 1.000
8.560 248.000 1.000
8.580 272.000 1.000
8.600 259.000 1.000
8.620 256.000 1.000
8.640 259.000 1.000
8.660 248.000 1.000
8.680 247.000 1.000
8.700 241.000 1.000
8.720 261.000 1.000
8.740 276.000 1.000
8.760 271.000 1.000
8.780 277.000 1.000
8.800 265.000 1.000
8.820 256.000 1.000
8.840 247.000 1.000
8.860 231.000 1.000
8.880 270.000 1.000
8.900 298.000 1.000
8.920 270.000 1.000
8.940 275.000 1.000
8.960 280.000 1.000
8.980 264.000 1.000
9.000 268.000 1.000
9.020 287.000 1.000
9.040 301.000 1.000
9.060 259.000 1.000
9.080 267.000 1.000
9.100 310.000 1.000
9.120 243.000 1.000
9.140 280.000 1.000
9.160 278.000 1.000
9.180 294.000 1.000
9.200 279.000 1.000
9.220 305.000 1.000
9.240 280.000 1.000
9.260 282.000 1.000
9.280 296.000 1.000
9.300 285.000 1.000
9.320 288.000 1.000
9.340 269.000 1.000
9.360 283.000 1.000
9.380 270.000 1.000
9.400 278.000 1.000
9.420 273.000 1.000
9.440 286.000 1.000
9.460 301.000 1.000
9.480 270.000 1.000
9.500 280.000 1.000
9.520 283.000 1.000
9.540 300.000 1.000
9.560 272.000 1.000
9.580 293.000 1.000
9.600 292.000 1.000
9.620 290.000 1.000
9.640 295.000 1.000
9.660 301.000 1.000
9.680 274.000 1.000
9.700 286.000 1.000
9.720 304.000 1.000
9.740 331.000 1.000
9.760 325.000 1.000
9.780 314.000 1.000
9.800 301.000 1.000
9.820 298.000 1.000
9.840 282.000 1.000
9.860 297.000 1.000
9.880 310.000 1.000
9.900 327.000 1.000
9.920 335.000 1.000
9.940 309.000 1.000
9.960 312.000 1.000
9.980 318.000 1.000
10.000 319.000 1.000
10.020 302.000 1.000
10.040 304.000 1.000
10.060 334.000 1.000
10.080 301.000 1.000
10.100 293.000 1.000
10.120 280.000 1.000
10.140 303.000 1.000
10.160 321.000 1.000
10.180 317.000 1.000
10.200 319.000 1.000
10.220 310.000 1.000
10.240 327.000 1.000
10.260 309.000 1.000
10.280 307.000 1.000
10.300 314.000 1.000
10.320 345.000 1.000
10.340 300.000 1.000
10.360 315.000 1.000
10.380 343.000 1.000
10.400 307.000 1.000
10.420 304.000 1.000
10.440 270.000 1.000
10.460 322.000 1.000
10.480 350.000 1.000
10.500 318.000 1.000
10.520 335.000 1.000
10.540 317.000 1.000
10.560 295.000 1.000
10.580 309.000 1.000
10.600 309.000 1.000
10.620 320.000 1.000
10.640 336.000 1.000
10.660 314.000 1.000
10.680 294.000 1.000
10.700 303.000 1.000
10.720 324.000 1.000
10.740 336.000 1.000
10.760 344.000 1.000
10.780 320.000 1.000
10.800 299.000 1.000
10.820 331.000 1.000
10.840 320.000 1.000
10.860 315.000 1.000
10.880 330.000 1.000
10.900 313.000 1.000
10.920 350.000 1.000
10.940 335.000 1.000
10.960 324.000 1.000
10.980 313.000 1.000
11.000 315.000 1.000
11.020 341.000 1.000
11.040 334.000 1.000
11.060 301.000 1.000
11.080 343.000 1.000
11.100 356.000 1.000
11.120 318.000 1.000
11.140 345.000 1.000
11.160 346.000 1.000
11.180 348.000 1.000
11.200 345.000 1.000
11.220 324.000 1.000
11.240 307.000 1.000
11.260 338.000 1.000
11.280 363.000 1.000
11.300 324.000 1.000
11.320 327.000 1.000
11.340 313.000 1.000
11.360 304.000 1.000
11.380 348.000 1.000
11.400 363.000 1.000
11.420 343.000 1.000
11.440 348.000 1.000
11.460 345.000 1.000
11.480 347.000 1.000
11.500 339.000 1.000
11.520 355.000 1.000
11.540 342.000 1.000
11.560 371.000 1.000
11.580 367.000 1.000
11.600 346.000 1.000
11.620 346.000 1.000
11.640 320.000 1.000
11.660 363.000 1.000
11.680 335.000 1.000
11.700 345.000 1.000
11.720 367.000 1.000
11.740 391.000 1.000
11.760 365.000 1.000
11.780 358.000 1.000
11.800 352.000 1.000
11.820 370.000 1.000
11.840 353.000 1.000
11.860 384.000 1.000
11.880 363.000 1.000
11.900 373.000 1.000
11.920 344.000 1.000
11.940 373.000 1.000
11.960 365.000 1.000
11.980 330.000 1.000
12.000 344.000 1.000
12.020 362.000 1.000
12.040 370.000 1.000
12.060 404.000 1.000
12.080 360.000 1.000
12.100 385.000 1.000
12.120 372.000 1.000
12.140 356.000 1.000
12.160 349.000 1.000
12.180 365.000 1.000
12.200 406.000 1.000
12.220 355.000 1.000
12.240 335.000 1.000
12.260 352.000 1.000
12.280 374.000 1.000
12.300 383.000 1.000
12.320 398.000 1.000
12.340 386.000 1.000
12.360 379.000 1.000
12.380 377.000 1.000
12.400 374.000 1.000
12.420 368.000 1.000
12.440 359.000 1.000
12.460 386.000 1.000
12.480 372.000 1.000
12.500 367.000 1.000
12.520 360.000 1.000
12.540 406.000 1.000
12.560 394.000 1.000
12.580 394.000 1.000
12.600 396.000 1.000
12.620 364.000 1.000
12.640 389.000 1.000
12.660 393.000 1.000
12.680 357.000 1.000
12.700 385.000 1.000
12.720 386.000 1.000
12.740 391.000 1.000
12.760 396.000 1.000
12.780 367.000 1.000
12.800 375.000 1.000
12.820 402.000 1.000
12.840 416.000 1.000
12.860 375.000 1.000
12.880 361.000 1.000
12.900 364.000 1.000
12.920 381.000 1.000
12.940 365.000 1.000
12.960 360.000 1.000
12.980 422.000 1.000
13.000 395.000 1.000
13.020 412.000 1.000
13.040 405.000 1.000
13.060 391.000 1.000
13.080 392.000 1.000
13.100 397.000 1.000
13.120 385.000 1.000
13.140 405.000 1.000
13.160 394.000 1.000
13.180 421.000 1.000
13.200 380.000 1.000
13.220 405.000 1.000
13.240 401.000 1.000
13.260 383.000 1.000
13.280 404.000 1.000
13.300 385.000 1.000
13.320 428.000 1.000
13.340 410.000 1.000
13.360 402.000 1.000
13.380 413.000 1.000
13.400 362.000 1.000
13.420 427.000 1.000
13.440 401.000 1.000
13.460 423.000 1.000
13.480 424.000 1.000
13.500 388.000 1.000
13.520 424.000 1.000
13.540 380.000 1.000
13.560 391.000 1.000
13.580 425.000 1.000
13.600 393.000 1.000
13.620 393.000 1.000
13.640 371.000 1.000
13.660 396.000 1.000
13.680 413.000 1.000
13.700 371.000 1.000
13.720 407.000 1.000
13.740 427.000 1.000
13.760 420.000 1.000
13.780 403.000 1.000
13.800 399.000 1.000
13.820 423.000 1.000
13.840 419.000 1.000
13.860 435.000 1.000
13.880 448.000 1.000
13.900 420.000 1.000
13.920 390.000 1.000
13.940 422.000 1.000
13.960 441.000 1.000
13.980 441.000 1.000
14.000 457.000 1.000
14.020 463.000 1.000
14.040 497.000 1.000
14.060 449.000 1.000
14.080 456.000 1.000
14.100 495.000 1.000
14.120 504.000 1.000
14.140 512.000 1.000
14.160 538.000 1.000
14.180 546.000 1.000
14.200 538.000 1.000
14.220 523.000 1.000
14.240 502.000 1.000
14.260 478.000 1.000
14.280 450.000 1.000
14.300 454.000 1.000
14.320 416.000 1.000
14.340 431.000 1.000
14.360 439.000 1.000
14.380 427.000 1.000
14.400 424.000 1.000
14.420 424.000 1.000
14.440 417.000 1.000
14.460 417.000 1.000
14.480 455.000 1.000
14.500 414.000 1.000
14.520 416.000 1.000
14.540 408.000 1.000
14.560 431.000 1.000
14.580 412.000 1.000
14.600 393.000 1.000
14.620 440.000 1.000
14.640 439.000 1.000
14.660 401.000 1.000
14.680 419.000 1.000
14.700 432.000 1.000
14.720 408.000 1.000
14.740 422.000 1.000
14.760 409.000 1.000
14.780 419.000 1.000
14.800 414.000 1.000
14.820 381.000 1.000
14.840 422.000 1.000
14.860 435.000 1.000
14.880 461.000 1.000
14.900 414.000 1.000
14.920 423.000 1.000
14.940 387.000 1.000
14.960 438.000 1.000
14.980 459.000 1.000
15.000 439.000 1.000
15.020 478.000 1.000
15.040 459.000 1.000
15.060 425.000 1.000
15.080 437.000 1.000
15.100 431.000 1.000
15.120 434.000 1.000
15.140 480.000 1.000
15.160 446.000 1.000
15.180 472.000 1.000
15.200 494.000 1.000
15.220 518.000 1.000
15.240 482.000 1.000
15.260 461.000 1.000
15.280 428.000 1.000
15.300 446.000 1.000
15.320 427.000 1.000
15.340 437.000 1.000
15.360 444.000 1.000
15.380 418.000 1.000
15.400 440.000 1.000
15.420 421.000 1.000
15.440 442.000 1.000
15.460 454.000 1.000
15.480 449.000 1.000
15.500 435.000 1.000
15.520 462.000 1.000
15.540 478.000 1.000
15.560 456.000 1.000
15.580 412.000 1.000
15.600 435.000 1.000
15.620 451.000 1.000
15.640 411.000 1.000
15.660 457.000 1.000
15.680 421.000 1.000
15.700 427.000 1.000
15.720 400.000 1.000
15.740 413.000 1.000
15.760 458.000 1.000
15.780 420.000 1.000
15.800 430.000 1.000
15.820 460.000 1.000
15.840 451.000 1.000
15.860 460.000 1.000
15.880 431.000 1.000
15.900 423.000 1.000
15.920 458.000 1.000
15.940 458.000 1.000
15.960 415.000 1.000
15.980 421.000 1.000
16.000 476.000 1.000
16.020 441.000 1.000
16.040 451.000 1.000
16.060 453.000 1.000
16.080 455.000 1.000
16.100 430.000 1.000
16.120 438.000 1.000
16.140 435.000 1.000
16.160 415.000 1.000
16.180 456.000 1.000
16.200 421.000 1.000
16.220 415.000 1.000
16.240 445.000 1.000
16.260 444.000 1.000
16.280 412.000 1.000
16.300 420.000 1.000
16.320 458.000 1.000
16.340 428.000 1.000
16.360 453.000 1.000
16.380 433.000 1.000
16.400 437.000 1.000
16.420 454.000 1.000
16.440 407.000 1.000
16.460 431.000 1.000
16.480 416.000 1.000
16.500 443.000 1.000
16.520 445.000 1.000
16.540 419.000 1.000
16.560 456.000 1.000
16.580 430.000 1.000
16.600 418.000 1.000
16.620 437.000 1.000
16.640 442.000 1.000
16.660 434.000 1.000
16.680 428.000 1.000
16.700 454.000 1.000
16.720 461.000 1.000
16.740 451.000 1.000
16.760 467.000 1.000
16.780 456.000 1.000
16.800 457.000 1.000
16.820 455.000 1.000
16.840 430.000 1.000
16.860 414.000 1.000
16.880 437.000 1.000
16.900 429.000 1.000
16.920 439.000 1.000
16.940 450.000 1.000
16.960 479.000 1.000
16.980 470.000 1.000
17.000 434.000 1.000
17.020 444.000 1.000
17.040 418.000 1.000
17.060 442.000 1.000
17.080 432.000 1.000
17.100 472.000 1.000
17.120 458.000 1.000
17.140 467.000 1.000
17.160 479.000 1.000
17.180 459.000 1.000
17.200 479.000 1.000
17.220 474.000 1.000
17.240 436.000 1.000
17.260 474.000 1.000
17.280 420.000 1.000
17.300 417.000 1.000
17.320 470.000 1.000
17.340 485.000 1.000
17.360 420.000 1.000
17.380 448.000 1.000
17.400 445.000 1.000
17.420 470.000 1.000
17.440 468.000 1.000
17.460 438.000 1.000
17.480 424.000 1.000
17.500 449.000 1.000
17.520 459.000 1.000
17.540 447.000 1.000
17.560 455.000 1.000
17.580 450.000 1.000
17.600 470.000 1.000
17.620 426.000 1.000
17.640 454.000 1.000
17.660 461.000 1.000
17.680 454.000 1.000
17.700 501.000 1.000
17.720 458.000 1.000
17.740 462.000 1.000
17.760 450.000 1.000
17.780 445.000 1.000
17.800 467.000 1.000
17.820 474.000 1.000
17.840 452.000 1.000
17.860 473.000 1.000
17.880 518.000 1.000
17.900 492.000 1.000
17.920 459.000 1.000
17.940 488.000 1.000
17.960 525.000 1.000
17.980 500.000 1.000
18.000 489.000 1.000
18.020 512.000 1.000
18.040 543.000 1.000
18.060 505.000 1.000
18.080 533.000 1.000
18.100 498.000 1.000
18.120 436.000 1.000
18.140 465.000 1.000
18.160 496.000 1.000
18.180 457.000 1.000
18.200 466.000 1.000
18.220 458.000 1.000
18.240 434.000 1.000
18.260 482.000 1.000
18.280 481.000 1.000
18.300 483.000 1.000
18.320 451.000 1.000
18.340 472.000 1.000
18.360 480.000 1.000
18.380 499.000 1.000
18.400 478.000 1.000
18.420 495.000 1.000
18.440 460.000 1.000
18.460 476.000 1.000
18.480 443.000 1.000
18.500 450.000 1.000
18.520 468.000 1.000
18.540 494.000 1.000
18.560 494.000 1.000
18.580 476.000 1.000
18.600 459.000 1.000
18.620 536.000 1.000
18.640 516.000 1.000
18.660 515.000 1.000
18.680 495.000 1.000
18.700 478.000 1.000
18.720 494.000 1.000
18.740 508.000 1.000
18.760 505.000 1.000
18.780 503.000 1.000
18.800 492.000 1.000
18.820 501.000 1.000
18.840 459.000 1.000
18.860 499.000 1.000
18.880 499.000 1.000
18.900 477.000 1.000
18.920 461.000 1.000
18.940 490.000 1.000
18.960 483.000 1.000
18.980 470.000 1.000
19.000 466.000 1.000
19.020 459.000 1.000
19.040 501.000 1.000
19.060 474.000 1.000
19.080 456.000 1.000
19.100 440.000 1.000
19.120 417.000 1.000
19.140 453.000 1.000
19.160 460.000 1.000
19.180 451.000 1.000
19.200 457.000 1.000
19.220 482.000 1.000
19.240 492.000 1.000
19.260 445.000 1.000
19.280 461.000 1.000
19.300 479.000 1.000
19.320 461.000 1.000
19.340 448.000 1.000
19.360 466.000 1.000
19.380 482.000 1.000
19.400 480.000 1.000
19.420 469.000 1.000
19.440 448.000 1.000
19.460 485.000 1.000
19.480 495.000 1.000
19.500 462.000 1.000
19.520 516.000 1.000
19.540 477.000 1.000
19.560 471.000 1.000
19.580 465.000 1.000
19.600 479.000 1.000
19.620 498.000 1.000
19.640 457.000 1.000
19.660 467.000 1.000
19.680 478.000 1.000
19.700 479.000 1.000
19.720 485.000 1.000
19.740 468.000 1.000
19.760 453.000 1.000
19.780 480.000 1.000
19.800 497.000 1.000
19.820 481.000 1.000
19.840 480.000 1.000
19.860 479.000 1.000
19.880 466.000 1.000
19.900 491.000 1.000
19.920 506.000 1.000
19.940 467.000 1.000
19.960 504.000 1.000
19.980 548.000 1.000
20.000 471.000 1.000
20.020 490.000 1.000
20.040 439.000 1.000
20.060 466.000 1.000
20.080 467.000 1.000
20.100 466.000 1.000
20.120 487.000 1.000
20.140 495.000 1.000
20.160 496.000 1.000
20.180 496.000 1.000
20.200 460.000 1.000
20.220 462.000 1.000
20.240 471.000 1.000
20.260 449.000 1.000
20.280 473.000 1.000
20.300 482.000 1.000
20.320 493.000 1.000
20.340 485.000 1.000
20.360 451.000 1.000
20.380 494.000 1.000
20.400 451.000 1.000
20.420 496.000 1.000
20.440 472.000 1.000
20.460 464.000 1.000
20.480 496.000 1.000
20.500 497.000 1.000
20.520 460.000 1.000
20.540 471.000 1.000
20.560 469.000 1.000
20.580 460.000 1.000
20.600 475.000 1.000
20.620 439.000 1.000
20.640 496.000 1.000
20.660 492.000 1.000
20.680 477.000 1.000
20.700 523.000 1.000
20.720 501.000 1.000
20.740 487.000 1.000
20.760 464.000 1.000
20.780 483.000 1.000
20.800 457.000 1.000
20.820 498.000 1.000
20.840 468.000 1.000
20.860 511.000 1.000
20.880 506.000 1.000
20.900 480.000 1.000
20.920 489.000 1.000
20.940 470.000 1.000
20.960 496.000 1.000
20.980 490.000 1.000
21.000 463.000 1.000
21.020 469.000 1.000
21.040 503.000 1.000
21.060 463.000 1.000
21.080 504.000 1.000
21.100 478.000 1.000
21.120 489.000 1.000
21.140 491.000 1.000
21.160 480.000 1.000
21.180 496.000 1.000
21.200 508.000 1.000
21.220 529.000 1.000
21.240 509.000 1.000
21.260 505.000 1.000
21.280 529.000 1.000
21.300 522.000 1.000
21.320 535.000 1.000
21.340 560.000 1.000
21.360 534.000 1.000
21.380 472.000 1.000
21.400 534.000 1.000
21.420 542.000 1.000
21.440 522.000 1.000
21.460 498.000 1.000
21.480 543.000 1.000
21.500 537.000 1.000
21.520 556.000 1.000
21.540 559.000 1.000
21.560 588.000 1.000
21.580 581.000 1.000
21.600 579.000 1.000
21.620 547.000 1.000
21.640 560.000 1.000
21.660 611.000 1.000
21.680 617.000 1.000
21.700 606.000 1.000
21.720 628.000 1.000
21.740 612.000 1.000
21.760 549.000 1.000
21.780 573.000 1.000
21.800 565.000 1.000
21.820 527.000 1.000
21.840 532.000 1.000
21.860 488.000 1.000
21.880 480.000 1.000
21.900 516.000 1.000
21.920 552.000 1.000
21.940 466.000 1.000
21.960 471.000 1.000
21.980 517.000 1.000
22.000 524.000 1.000
22.020 523.000 1.000
22.040 495.000 1.000
22.060 499.000 1.000
22.080 486.000 1.000
22.100 503.000 1.000
22.120 483.000 1.000
22.140 468.000 1.000
22.160 505.000 1.000
22.180 497.000 1.000
22.200 513.000 1.000
22.220 516.000 1.000
22.240 487.000 1.000
22.260 514.000 1.000
22.280 495.000 1.000
22.300 493.000 1.000
22.320 539.000 1.000
22.340 524.000 1.000
22.360 513.000 1.000
22.380 538.000 1.000
22.400 500.000 1.000
22.420 505.000 1.000
22.440 498.000 1.000
22.460 510.000 1.000
22.480 528.000 1.000
22.500 465.000 1.000
22.520 473.000 1.000
22.540 547.000 1.000
22.560 529.000 1.000
22.580 520.000 1.000
22.600 498.000 1.000
22.620 488.000 1.000
22.640 519.000 1.000
22.660 515.000 1.000
22.680 500.000 1.000
22.700 534.000 1.000
22.720 541.000 1.000
22.740 489.000 1.000
22.760 503.000 1.000
22.780 473.000 1.000
22.800 489.000 1.000
22.820 552.000 1.000
22.840 540.000 1.000
22.860 567.000 1.000
22.880 530.000 1.000
22.900 556.000 1.000
22.920 547.000 1.000
22.940 520.000 1.000
22.960 573.000 1.000
22.980 563.000 1.000
23.000 556.000 1.000
23.020 601.000 1.000
23.040 655.000 1.000
23.060 646.000 1.000
23.080 622.000 1.000
23.100 671.000 1.000
23.120 653.000 1.000
23.140 772.000 1.000
23.160 789.000 1.000
23.180 816.000 1.000
23.200 902.000 1.000
23.220 992.000 1.000
23.240 1058.000 1.000
23.260 1171.000 1.000
23.280 1279.000 1.000
23.300 1275.000 1.000
23.320 1276.000 1.000
23.340 1267.000 1.000
23.360 1267.000 1.000
23.380 1180.000 1.000
23.400 1019.000 1.000
23.420 922.000 1.000
23.440 794.000 1.000
23.460 746.000 1.000
23.480 727.000 1.000
23.500 687.000 1.000
23.520 658.000 1.000
23.540 614.000 1.000
23.560 650.000 1.000
23.580 651.000 1.000
23.600 621.000 1.000
23.620 667.000 1.000
23.640 657.000 1.000
23.660 649.000 1.000
23.680 706.000 1.000
23.700 673.000 1.000
23.720 679.000 1.000
23.740 662.000 1.000
23.760 664.000 1.000
23.780 642.000 1.000
23.800 625.000 1.000
23.820 686.000 1.000
23.840 657.000 1.000
23.860 644.000 1.000
23.880 644.000 1.000
23.900 661.000 1.000
23.920 641.000 1.000
23.940 724.000 1.000
23.960 631.000 1.000
23.980 675.000 1.000
24.000 673.000 1.000
24.020 600.000 1.000
24.040 585.000 1.000
24.060 625.000 1.000
24.080 599.000 1.000
24.100 641.000 1.000
24.120 589.000 1.000
24.140 515.000 1.000
24.160 576.000 1.000
24.180 626.000 1.000
24.200 624.000 1.000
24.220 602.000 1.000
24.240 577.000 1.000
24.260 578.000 1.000
24.280 601.000 1.000
24.300 579.000 1.000
24.320 544.000 1.000
24.340 554.000 1.000
24.360 550.000 1.000
24.380 547.000 1.000
24.400 536.000 1.000
24.420 554.000 1.000
24.440 529.000 1.000
24.460 521.000 1.000
24.480 514.000 1.000
24.500 504.000 1.000
24.520 513.000 1.000
24.540 520.000 1.000
24.560 527.000 1.000
24.580 528.000 1.000
24.600 509.000 1.000
24.620 502.000 1.000
24.640 521.000 1.000
24.660 547.000 1.000
24.680 535.000 1.000
24.700 529.000 1.000
24.720 502.000 1.000
24.740 502.000 1.000
24.760 502.000 1.000
24.780 529.000 1.000
24.800 521.000 1.000
24.820 516.000 1.000
24.840 545.000 1.000
24.860 514.000 1.000
24.880 509.000 1.000
24.900 535.000 1.000
24.920 526.000 1.000
24.940 506.000 1.000
24.960 492.000 1.000
24.980 493.000 1.000
25.000 526.000 1.000
25.020 519.000 1.000
25.040 545.000 1.000
25.060 512.000 1.000
25.080 491.000 1.000
25.100 536.000 1.000
25.120 565.000 1.000
25.140 527.000 1.000
25.160 530.000 1.000
25.180 535.000 1.000
25.200 507.000 1.000
25.220 547.000 1.000
25.240 555.000 1.000
25.260 529.000 1.000
25.280 525.000 1.000
25.300 550.000 1.000
25.320 532.000 1.000
25.340 575.000 1.000
25.360 546.000 1.000
25.380 512.000 1.000
25.400 512.000 1.000
25.420 561.000 1.000
25.440 514.000 1.000
25.460 509.000 1.000
25.480 477.000 1.000
25.500 492.000 1.000
25.520 523.000 1.000
25.540 541.000 1.000
25.560 513.000 1.000
25.580 507.000 1.000
25.600 502.000 1.000
25.620 483.000 1.000
25.640 436.000 1.000
25.660 487.000 1.000
25.680 505.000 1.000
25.700 511.000 1.000
25.720 489.000 1.000
25.740 488.000 1.000
25.760 512.000 1.000
25.780 491.000 1.000
25.800 499.000 1.000
25.820 486.000 1.000
25.840 542.000 1.000
25.860 519.000 1.000
25.880 525.000 1.000
25.900 521.000 1.000
25.920 573.000 1.000
25.940 505.000 1.000
25.960 527.000 1.000
25.980 532.000 1.000
26.000 529.000 1.000
26.020 539.000 1.000
26.040 512.000 1.000
26.060 509.000 1.000
26.080 553.000 1.000
26.100 562.000 1.000
26.120 562.000 1.000
26.140 560.000 1.000
26.160 563.000 1.000
26.180 554.000 1.000
26.200 574.000 1.000
26.220 572.000 1.000
26.240 569.000 1.000
26.260 555.000 1.000
26.280 568.000 1.000
26.300 565.000 1.000
26.320 568.000 1.000
26.340 577.000 1.000
26.360 613.000 1.000
26.380 615.000 1.000
26.400 600.000 1.000
26.420 674.000 1.000
26.440 709.000 1.000
26.460 716.000 1.000
26.480 734.000 1.000
26.500 744.000 1.000
26.520 749.000 1.000
26.540 803.000 1.000
26.560 889.000 1.000
26.580 848.000 1.000
26.600 826.000 1.000
26.620 890.000 1.000
26.640 861.000 1.000
26.660 823.000 1.000
26.680 771.000 1.000
26.700 698.000 1.000
26.720 716.000 1.000
26.740 616.000 1.000
26.760 621.000 1.000
26.780 578.000 1.000
26.800 551.000 1.000
26.820 512.000 1.000
26.840 556.000 1.000
26.860 553.000 1.000
26.880 565.000 1.000
26.900 526.000 1.000
26.920 541.000 1.000
26.940 536.000 1.000
26.960 605.000 1.000
26.980 529.000 1.000
27.000 551.000 1.000
27.020 508.000 1.000
27.040 528.000 1.000
27.060 492.000 1.000
27.080 580.000 1.000
27.100 556.000 1.000
27.120 519.000 1.000
27.140 499.000 1.000
27.160 508.000 1.000
27.180 537.000 1.000
27.200 523.000 1.000
27.220 531.000 1.000
27.240 517.000 1.000
27.260 546.000 1.000
27.280 501.000 1.000
27.300 534.000 1.000
27.320 521.000 1.000
27.340 521.000 1.000
27.360 524.000 1.000
27.380 534.000 1.000
27.400 497.000 1.000
27.420 537.000 1.000
27.440 522.000 1.000
27.460 541.000 1.000
27.480 500.000 1.000
27.500 521.000 1.000
27.520 566.000 1.000
27.540 548.000 1.000
27.560 558.000 1.000
27.580 532.000 1.000
27.600 536.000 1.000
27.620 547.000 1.000
27.640 566.000 1.000
27.660 541.000 1.000
27.680 557.000 1.000
27.700 624.000 1.000
27.720 614.000 1.000
27.740 557.000 1.000
27.760 589.000 1.000
27.780 565.000 1.000
27.800 611.000 1.000
27.820 603.000 1.000
27.840 608.000 1.000
27.860 633.000 1.000
27.880 627.000 1.000
27.900 664.000 1.000
27.920 682.000 1.000
27.940 676.000 1.000
27.960 661.000 1.000
27.980 657.000 1.000
28.000 666.000 1.000
28.020 722.000 1.000
28.040 722.000 1.000
28.060 725.000 1.000
28.080 766.000 1.000
28.100 766.000 1.000
28.120 809.000 1.000
28.140 818.000 1.000
28.160 800.000 1.000
28.180 840.000 1.000
28.200 804.000 1.000
28.220 853.000 1.000
28.240 826.000 1.000
28.260 855.000 1.000
28.280 840.000 1.000
28.300 852.000 1.000
28.320 924.000 1.000
28.340 939.000 1.000
28.360 1022.000 1.000
28.380 959.000 1.000
28.400 1134.000 1.000
28.420 1184.000 1.000
28.440 1274.000 1.000
28.460 1449.000 1.000
28.480 1493.000 1.000
28.500 1623.000 1.000
28.520 1758.000 1.000
28.540 1880.000 1.000
28.560 2120.000 1.000
28.580 2258.000 1.000
28.600 2487.000 1.000
28.620 2859.000 1.000
28.640 3127.000 1.000
28.660 3472.000 1.000
28.680 3861.000 1.000
28.700 4483.000 1.000
28.720 4961.000 1.000
28.740 5641.000 1.000
28.760 6210.000 1.000
28.780 6796.000 1.000
28.800 7356.000 1.000
28.820 7637.000 1.000
28.840 7518.000 1.000
28.860 7211.000 1.000
28.880 6850.000 1.000
28.900 6332.000 1.000
28.920 5647.000 1.000
28.940 5146.000 1.000
28.960 4618.000 1.000
28.980 4122.000 1.000
29.000 3717.000 1.000
29.020 3235.000 1.000
29.040 2915.000 1.000
29.060 2530.000 1.000
29.080 2156.000 1.000
29.100 1939.000 1.000
29.120 1709.000 1.000
29.140 1511.000 1.000
29.160 1308.000 1.000
29.180 1301.000 1.000
29.200 1251.000 1.000
29.220 1167.000 1.000
29.240 1092.000 1.000
29.260 1001.000 1.000
29.280 1017.000 1.000
29.300 985.000 1.000
29.320 963.000 1.000
29.340 971.000 1.000
29.360 945.000 1.000
29.380 933.000 1.000
29.400 980.000 1.000
29.420 1004.000 1.000
29.440 1034.000 1.000
29.460 967.000 1.000
29.480 943.000 1.000
29.500 1081.000 1.000
29.520 1155.000 1.000
29.540 1152.000 1.000
29.560 1307.000 1.000
29.580 1351.000 1.000
29.600 1495.000 1.000
29.620 1656.000 1.000
29.640 1799.000 1.000
29.660 1987.000 1.000
29.680 2138.000 1.000
29.700 2390.000 1.000
29.720 2594.000 1.000
29.740 2839.000 1.000
29.760 3086.000 1.000
29.780 2977.000 1.000
29.800 2986.000 1.000
29.820 2773.000 1.000
29.840 2524.000 1.000
29.860 2242.000 1.000
29.880 2017.000 1.000
29.900 1798.000 1.000
29.920 1538.000 1.000
29.940 1283.000 1.000
29.960 1139.000 1.000
29.980 1099.000 1.000
30.000 1008.000 1.000
30.020 879.000 1.000
30.040 880.000 1.000
30.060 866.000 1.000
30.080 843.000 1.000
30.100 819.000 1.000
30.120 823.000 1.000
30.140 803.000 1.000
30.160 807.000 1.000
30.180 750.000 1.000
30.200 805.000 1.000
30.220 811.000 1.000
30.240 849.000 1.000
30.260 791.000 1.000
30.280 848.000 1.000
30.300 892.000 1.000
30.320 966.000 1.000
30.340 922.000 1.000
30.360 945.000 1.000
30.380 971.000 1.000
30.400 1092.000 1.000
30.420 1120.000 1.000
30.440 1173.000 1.000
30.460 1291.000 1.000
30.480 1338.000 1.000
30.500 1476.000 1.000
30.520 1596.000 1.000
30.540 1782.000 1.000
30.560 1992.000 1.000
30.580 2176.000 1.000
30.600 2312.000 1.000
30.620 2520.000 1.000
30.640 2620.000 1.000
30.660 2612.000 1.000
30.680 2508.000 1.000
30.700 2322.000 1.000
30.720 2051.000 1.000
30.740 1801.000 1.000
30.760 1552.000 1.000
30.780 1401.000 1.000
30.800 1103.000 1.000
30.820 1025.000 1.000
30.840 951.000 1.000
30.860 821.000 1.000
30.880 790.000 1.000
30.900 721.000 1.000
30.920 678.000 1.000
30.940 672.000 1.000
30.960 665.000 1.000
30.980 646.000 1.000
31.000 629.000 1.000
31.020 615.000 1.000
31.040 608.000 1.000
31.060 619.000 1.000
31.080 611.000 1.000
31.100 586.000 1.000
31.120 585.000 1.000
31.140 607.000 1.000
31.160 567.000 1.000
31.180 565.000 1.000
31.200 543.000 1.000
31.220 544.000 1.000
31.240 525.000 1.000
31.260 483.000 1.000
31.280 503.000 1.000
31.300 508.000 1.000
31.320 558.000 1.000
31.340 534.000 1.000
31.360 527.000 1.000
31.380 506.000 1.000
31.400 517.000 1.000
31.420 538.000 1.000
31.440 533.000 1.000
31.460 526.000 1.000
31.480 491.000 1.000
31.500 533.000 1.000
31.520 493.000 1.000
31.540 484.000 1.000
31.560 483.000 1.000
31.580 511.000 1.000
31.600 523.000 1.000
31.620 482.000 1.000
31.640 500.000 1.000
31.660 485.000 1.000
31.680 500.000 1.000
31.700 513.000 1.000
31.720 498.000 1.000
31.740 508.000 1.000
31.760 455.000 1.000
31.780 484.000 1.000
31.800 489.000 1.000
31.820 481.000 1.000
31.840 485.000 1.000
31.860 482.000 1.000
31.880 469.000 1.000
31.900 497.000 1.000
31.920 486.000 1.000
31.940 460.000 1.000
31.960 491.000 1.000
31.980 452.000 1.000
32.000 495.000 1.000
32.020 475.000 1.000
32.040 503.000 1.000
32.060 471.000 1.000
32.080 452.000 1.000
32.100 457.000 1.000
32.120 513.000 1.000
32.140 484.000 1.000
32.160 482.000 1.000
32.180 472.000 1.000
32.200 468.000 1.000
32.220 458.000 1.000
32.240 452.000 1.000
32.260 484.000 1.000
32.280 469.000 1.000
32.300 466.000 1.000
32.320 450.000 1.000
32.340 460.000 1.000
32.360 443.000 1.000
32.380 463.000 1.000
32.400 472.000 1.000
32.420 460.000 1.000
32.440 457.000 1.000
32.460 497.000 1.000
32.480 492.000 1.000
32.500 500.000 1.000
32.520 486.000 1.000
32.540 487.000 1.000
32.560 489.000 1.000
32.580 475.000 1.000
32.600 510.000 1.000
32.620 492.000 1.000
32.640 492.000 1.000
32.660 472.000 1.000
32.680 449.000 1.000
32.700 449.000 1.000
32.720 461.000 1.000
32.740 487.000 1.000
32.760 481.000 1.000
32.780 481.000 1.000
32.800 452.000 1.000
32.820 453.000 1.000
32.840 485.000 1.000
32.860 438.000 1.000
32.880 407.000 1.000
32.900 436.000 1.000
32.920 443.000 1.000
32.940 463.000 1.000
32.960 493.000 1.000
32.980 459.000 1.000
33.000 474.000 1.000
33.020 479.000 1.000
33.040 490.000 1.000
33.060 468.000 1.000
33.080 470.000 1.000
33.100 467.000 1.000
33.120 450.000 1.000
33.140 450.000 1.000
33.160 433.000 1.000
33.180 477.000 1.000
33.200 460.000 1.000
33.220 432.000 1.000
33.240 450.000 1.000
33.260 424.000 1.000
33.280 438.000 1.000
33.300 430.000 1.000
33.320 456.000 1.000
33.340 456.000 1.000
33.360 454.000 1.000
33.380 448.000 1.000
33.400 455.000 1.000
33.420 440.000 1.000
33.440 470.000 1.000
33.460 448.000 1.000
33.480 484.000 1.000
33.500 469.000 1.000
33.520 482.000 1.000
33.540 462.000 1.000
33.560 472.000 1.000
33.580 485.000 1.000
33.600 444.000 1.000
33.620 481.000 1.000
33.640 455.000 1.000
33.660 453.000 1.000
33.680 501.000 1.000
33.700 459.000 1.000
33.720 503.000 1.000
33.740 488.000 1.000
33.760 488.000 1.000
33.780 487.000 1.000
33.800 513.000 1.000
33.820 507.000 1.000
33.840 561.000 1.000
33.860 535.000 1.000
33.880 540.000 1.000
33.900 555.000 1.000
33.920 587.000 1.000
33.940 581.000 1.000
33.960 591.000 1.000
33.980 631.000 1.000
34.000 635.000 1.000
34.020 680.000 1.000
34.040 680.000 1.000
34.060 696.000 1.000
34.080 772.000 1.000
34.100 820.000 1.000
34.120 864.000 1.000
34.140 884.000 1.000
34.160 914.000 1.000
34.180 956.000 1.000
34.200 992.000 1.000
34.220 1111.000 1.000
34.240 1119.000 1.000
34.260 1136.000 1.000
34.280 1144.000 1.000
34.300 1238.000 1.000
34.320 1139.000 1.000
34.340 1133.000 1.000
34.360 1021.000 1.000
34.380 956.000 1.000
34.400 888.000 1.000
34.420 799.000 1.000
34.440 740.000 1.000
34.460 669.000 1.000
34.480 636.000 1.000
34.500 600.000 1.000
34.520 602.000 1.000
34.540 566.000 1.000
34.560 545.000 1.000
34.580 525.000 1.000
34.600 519.000 1.000
34.620 525.000 1.000
34.640 480.000 1.000
34.660 525.000 1.000
34.680 480.000 1.000
34.700 454.000 1.000
34.720 465.000 1.000
34.740 525.000 1.000
34.760 461.000 1.000
34.780 463.000 1.000
34.800 503.000 1.000
34.820 492.000 1.000
34.840 471.000 1.000
34.860 460.000 1.000
34.880 445.000 1.000
34.900 424.000 1.000
34.920 445.000 1.000
34.940 425.000 1.000
34.960 428.000 1.000
34.980 448.000 1.000
35.000 454.000 1.000
35.020 438.000 1.000
35.040 476.000 1.000
35.060 456.000 1.000
35.080 467.000 1.000
35.100 455.000 1.000
35.120 463.000 1.000
35.140 481.000 1.000
35.160 464.000 1.000
35.180 460.000 1.000
35.200 484.000 1.000
35.220 454.000 1.000
35.240 459.000 1.000
35.260 447.000 1.000
35.280 442.000 1.000
35.300 472.000 1.000
35.320 450.000 1.000
35.340 492.000 1.000
35.360 464.000 1.000
35.380 492.000 1.000
35.400 501.000 1.000
35.420 473.000 1.000
35.440 505.000 1.000
35.460 506.000 1.000
35.480 489.000 1.000
35.500 493.000 1.000
35.520 537.000 1.000
35.540 572.000 1.000
35.560 566.000 1.000
35.580 630.000 1.000
35.600 677.000 1.000
35.620 688.000 1.000
35.640 717.000 1.000
35.660 770.000 1.000
35.680 832.000 1.000
35.700 843.000 1.000
35.720 892.000 1.000
35.740 1040.000 1.000
35.760 1136.000 1.000
35.780 1157.000 1.000
35.800 1227.000 1.000
35.820 1277.000 1.000
35.840 1278.000 1.000
35.860 1252.000 1.000
35.880 1160.000 1.000
35.900 1100.000 1.000
35.920 1025.000 1.000
35.940 960.000 1.000
35.960 921.000 1.000
35.980 798.000 1.000
36.000 745.000 1.000
36.020 713.000 1.000
36.040 658.000 1.000
36.060 629.000 1.000
36.080 606.000 1.000
36.100 560.000 1.000
36.120 554.000 1.000
36.140 544.000 1.000
36.160 526.000 1.000
36.180 535.000 1.000
36.200 506.000 1.000
36.220 507.000 1.000
36.240 501.000 1.000
36.260 477.000 1.000
36.280 472.000 1.000
36.300 471.000 1.000
36.320 529.000 1.000
36.340 459.000 1.000
36.360 472.000 1.000
36.380 536.000 1.000
36.400 512.000 1.000
36.420 567.000 1.000
36.440 525.000 1.000
36.460 600.000 1.000
36.480 528.000 1.000
36.500 569.000 1.000
36.520 576.000 1.000
36.540 514.000 1.000
36.560 562.000 1.000
36.580 582.000 1.000
36.600 511.000 1.000
36.620 472.000 1.000
36.640 463.000 1.000
36.660 465.000 1.000
36.680 543.000 1.000
36.700 491.000 1.000
36.720 485.000 1.000
36.740 455.000 1.000
36.760 445.000 1.000
36.780 523.000 1.000
36.800 536.000 1.000
36.820 501.000 1.000
36.840 515.000 1.000
36.860 512.000 1.000
36.880 536.000 1.000
36.900 550.000 1.000
36.920 564.000 1.000
36.940 593.000 1.000
36.960 626.000 1.000
36.980 697.000 1.000
37.000 760.000 1.000
37.020 804.000 1.000
37.040 875.000 1.000
37.060 883.000 1.000
37.080 945.000 1.000
37.100 1028.000 1.000
37.120 1044.000 1.000
37.140 1039.000 1.000
37.160 1021.000 1.000
37.180 1002.000 1.000
37.200 902.000 1.000
37.220 854.000 1.000
37.240 808.000 1.000
37.260 728.000 1.000
37.280 677.000 1.000
37.300 644.000 1.000
37.320 569.000 1.000
37.340 551.000 1.000
37.360 505.000 1.000
37.380 541.000 1.000
37.400 497.000 1.000
37.420 550.000 1.000
37.440 516.000 1.000
37.460 466.000 1.000
37.480 469.000 1.000
37.500 453.000 1.000
37.520 476.000 1.000
37.540 463.000 1.000
37.560 433.000 1.000
37.580 498.000 1.000
37.600 423.000 1.000
37.620 464.000 1.000
37.640 451.000 1.000
37.660 477.000 1.000
37.680 480.000 1.000
37.700 443.000 1.000
37.720 481.000 1.000
37.740 460.000 1.000
37.760 424.000 1.000
37.780 499.000 1.000
37.800 464.000 1.000
37.820 512.000 1.000
37.840 502.000 1.000
37.860 570.000 1.000
37.880 587.000 1.000
37.900 609.000 1.000
37.920 620.000 1.000
37.940 652.000 1.000
37.960 667.000 1.000
37.980 683.000 1.000
38.000 697.000 1.000
38.020 713.000 1.000
38.040 723.000 1.000
38.060 759.000 1.000
38.080 690.000 1.000
38.100 660.000 1.000
38.120 665.000 1.000
38.140 632.000 1.000
38.160 578.000 1.000
38.180 598.000 1.000
38.200 535.000 1.000
38.220 526.000 1.000
38.240 537.000 1.000
38.260 515.000 1.000
38.280 525.000 1.000
38.300 480.000 1.000
38.320 520.000 1.000
38.340 504.000 1.000
38.360 483.000 1.000
38.380 481.000 1.000
38.400 458.000 1.000
38.420 480.000 1.000
38.440 458.000 1.000
38.460 472.000 1.000
38.480 466.000 1.000
38.500 476.000 1.000
38.520 481.000 1.000
38.540 472.000 1.000
38.560 466.000 1.000
38.580 488.000 1.000
38.600 472.000 1.000
38.620 478.000 1.000
38.640 465.000 1.000
38.660 495.000 1.000
38.680 511.000 1.000
38.700 515.000 1.000
38.720 502.000 1.000
38.740 501.000 1.000
38.760 508.000 1.000
38.780 526.000 1.000
38.800 539.000 1.000
38.820 585.000 1.000
38.840 601.000 1.000
38.860 622.000 1.000
38.880 631.000 1.000
38.900 708.000 1.000
38.920 739.000 1.000
38.940 779.000 1.000
38.960 846.000 1.000
38.980 896.000 1.000
39.000 865.000 1.000
39.020 896.000 1.000
39.040 931.000 1.000
39.060 911.000 1.000
39.080 856.000 1.000
39.100 884.000 1.000
39.120 840.000 1.000
39.140 777.000 1.000
39.160 734.000 1.000
39.180 704.000 1.000
39.200 677.000 1.000
39.220 636.000 1.000
39.240 610.000 1.000
39.260 598.000 1.000
39.280 545.000 1.000
39.300 514.000 1.000
39.320 522.000 1.000
39.340 520.000 1.000
39.360 512.000 1.000
39.380 508.000 1.000
39.400 497.000 1.000
39.420 495.000 1.000
39.440 529.000 1.000
39.460 485.000 1.000
39.480 486.000 1.000
39.500 528.000 1.000
39.520 508.000 1.000
39.540 473.000 1.000
39.560 518.000 1.000
39.580 492.000 1.000
39.600 514.000 1.000
39.620 510.000 1.000
39.640 488.000 1.000
39.660 519.000 1.000
39.680 474.000 1.000
39.700 484.000 1.000
39.720 528.000 1.000
39.740 531.000 1.000
39.760 553.000 1.000
39.780 534.000 1.000
39.800 552.000 1.000
39.820 535.000 1.000
39.840 591.000 1.000
39.860 592.000 1.000
39.880 604.000 1.000
39.900 654.000 1.000
39.920 670.000 1.000
39.940 623.000 1.000
39.960 656.000 1.000
39.980 689.000 1.000
40.000 746.000 1.000
40.020 738.000 1.000
40.040 801.000 1.000
40.060 828.000 1.000
40.080 871.000 1.000
40.100 975.000 1.000
40.120 950.000 1.000
40.140 1024.000 1.000
40.160 1009.000 1.000
40.180 1041.000 1.000
40.200 1002.000 1.000
40.220 1001.000 1.000
40.240 1044.000 1.000
40.260 952.000 1.000
40.280 921.000 1.000
40.300 842.000 1.000
40.320 819.000 1.000
40.340 845.000 1.000
40.360 780.000 1.000
40.380 708.000 1.000
40.400 712.000 1.000
40.420 709.000 1.000
40.440 692.000 1.000
40.460 659.000 1.000
40.480 643.000 1.000
40.500 630.000 1.000
40.520 604.000 1.000
40.540 584.000 1.000
40.560 585.000 1.000
40.580 525.000 1.000
40.600 556.000 1.000
40.620 554.000 1.000
40.640 513.000 1.000
40.660 503.000 1.000
40.680 493.000 1.000
40.700 495.000 1.000
40.720 481.000 1.000
40.740 461.000 1.000
40.760 512.000 1.000
40.780 495.000 1.000
40.800 484.000 1.000
40.820 470.000 1.000
40.840 443.000 1.000
40.860 444.000 1.000
40.880 433.000 1.000
40.900 445.000 1.000
40.920 415.000 1.000
40.940 468.000 1.000
40.960 436.000 1.000
40.980 452.000 1.000
41.000 441.000 1.000
41.020 431.000 1.000
41.040 450.000 1.000
41.060 412.000 1.000
41.080 438.000 1.000
41.100 407.000 1.000
41.120 413.000 1.000
41.140 410.000 1.000
41.160 388.000 1.000
41.180 408.000 1.000
41.200 417.000 1.000
41.220 399.000 1.000
41.240 403.000 1.000
41.260 429.000 1.000
41.280 442.000 1.000
41.300 449.000 1.000
41.320 481.000 1.000
41.340 441.000 1.000
41.360 440.000 1.000
41.380 455.000 1.000
41.400 431.000 1.000
41.420 472.000 1.000
41.440 470.000 1.000
41.460 467.000 1.000
41.480 441.000 1.000
41.500 492.000 1.000
41.520 468.000 1.000
41.540 487.000 1.000
41.560 466.000 1.000
41.580 456.000 1.000
41.600 458.000 1.000
41.620 508.000 1.000
41.640 494.000 1.000
41.660 563.000 1.000
41.680 525.000 1.000
41.700 511.000 1.000
41.720 566.000 1.000
41.740 539.000 1.000
41.760 602.000 1.000
41.780 620.000 1.000
41.800 642.000 1.000
41.820 677.000 1.000
41.840 729.000 1.000
41.860 757.000 1.000
41.880 771.000 1.000
41.900 806.000 1.000
41.920 869.000 1.000
41.940 833.000 1.000
41.960 866.000 1.000
41.980 928.000 1.000
42.000 949.000 1.000
42.020 962.000 1.000
42.040 948.000 1.000
42.060 1009.000 1.000
42.080 1073.000 1.000
42.100 1111.000 1.000
42.120 1113.000 1.000
42.140 1142.000 1.000
42.160 1163.000 1.000
42.180 1207.000 1.000
42.200 1221.000 1.000
42.220 1139.000 1.000
42.240 1116.000 1.000
42.260 1021.000 1.000
42.280 1085.000 1.000
42.300 1041.000 1.000
42.320 951.000 1.000
42.340 834.000 1.000
42.360 796.000 1.000
42.380 817.000 1.000
42.400 715.000 1.000
42.420 765.000 1.000
42.440 728.000 1.000
42.460 691.000 1.000
42.480 642.000 1.000
42.500 611.000 1.000
42.520 627.000 1.000
42.540 601.000 1.000
42.560 545.000 1.000
42.580 536.000 1.000
42.600 539.000 1.000
42.620 547.000 1.000
42.640 542.000 1.000
42.660 528.000 1.000
42.680 495.000 1.000
42.700 505.000 1.000
42.720 541.000 1.000
42.740 535.000 1.000
42.760 504.000 1.000
42.780 474.000 1.000
42.800 486.000 1.000
42.820 507.000 1.000
42.840 511.000 1.000
42.860 487.000 1.000
42.880 469.000 1.000
42.900 491.000 1.000
42.920 523.000 1.000
42.940 534.000 1.000
42.960 540.000 1.000
42.980 533.000 1.000
43.000 501.000 1.000
43.020 526.000 1.000
43.040 524.000 1.000
43.060 558.000 1.000
43.080 571.000 1.000
43.100 540.000 1.000
43.120 578.000 1.000
43.140 604.000 1.000
43.160 623.000 1.000
43.180 609.000 1.000
43.200 628.000 1.000
43.220 630.000 1.000
43.240 669.000 1.000
43.260 685.000 1.000
43.280 697.000 1.000
43.300 717.000 1.000
43.320 741.000 1.000
43.340 723.000 1.000
43.360 778.000 1.000
43.380 835.000 1.000
43.400 855.000 1.000
43.420 902.000 1.000
43.440 918.000 1.000
43.460 906.000 1.000
43.480 915.000 1.000
43.500 896.000 1.000
43.520 860.000 1.000
43.540 735.000 1.000
43.560 741.000 1.000
43.580 712.000 1.000
43.600 696.000 1.000
43.620 659.000 1.000
43.640 595.000 1.000
43.660 589.000 1.000
43.680 560.000 1.000
43.700 569.000 1.000
43.720 561.000 1.000
43.740 586.000 1.000
43.760 584.000 1.000
43.780 568.000 1.000
43.800 532.000 1.000
43.820 534.000 1.000
43.840 537.000 1.000
43.860 564.000 1.000
43.880 549.000 1.000
43.900 600.000 1.000
43.920 588.000 1.000
43.940 588.000 1.000
43.960 628.000 1.000
43.980 666.000 1.000
44.000 644.000 1.000
44.020 659.000 1.000
44.040 716.000 1.000
44.060 747.000 1.000
44.080 814.000 1.000
44.100 799.000 1.000
44.120 911.000 1.000
44.140 941.000 1.000
44.160 980.000 1.000
44.180 1020.000 1.000
44.200 964.000 1.000
44.220 1014.000 1.000
44.240 1035.000 1.000
44.260 1004.000 1.000
44.280 973.000 1.000
44.300 966.000 1.000
44.320 911.000 1.000
44.340 835.000 1.000
44.360 797.000 1.000
44.380 747.000 1.000
44.400 733.000 1.000
44.420 712.000 1.000
44.440 689.000 1.000
44.460 684.000 1.000
44.480 611.000 1.000
44.500 588.000 1.000
44.520 580.000 1.000
44.540 609.000 1.000
44.560 572.000 1.000
44.580 625.000 1.000
44.600 598.000 1.000
44.620 622.000 1.000
44.640 608.000 1.000
44.660 620.000 1.000
44.680 581.000 1.000
44.700 591.000 1.000
44.720 594.000 1.000
44.740 564.000 1.000
44.760 550.000 1.000
44.780 544.000 1.000
44.800 535.000 1.000
44.820 487.000 1.000
44.840 529.000 1.000
44.860 510.000 1.000
44.880 507.000 1.000
44.900 460.000 1.000
44.920 449.000 1.000
44.940 478.000 1.000
44.960 461.000 1.000
44.980 465.000 1.000
45.000 458.000 1.000
45.020 466.000 1.000
45.040 462.000 1.000
45.060 478.000 1.000
45.080 497.000 1.000
45.100 470.000 1.000
45.120 476.000 1.000
45.140 454.000 1.000
45.160 484.000 1.000
45.180 488.000 1.000
45.200 477.000 1.000
45.220 523.000 1.000
45.240 533.000 1.000
45.260 496.000 1.000
45.280 484.000 1.000
45.300 479.000 1.000
45.320 474.000 1.000
45.340 476.000 1.000
45.360 454.000 1.000
45.380 488.000 1.000
45.400 448.000 1.000
45.420 427.000 1.000
45.440 417.000 1.000
45.460 431.000 1.000
45.480 429.000 1.000
45.500 409.000 1.000
45.520 381.000 1.000
45.540 416.000 1.000
45.560 431.000 1.000
45.580 436.000 1.000
45.600 416.000 1.000
45.620 447.000 1.000
45.640 432.000 1.000
45.660 390.000 1.000
45.680 402.000 1.000
45.700 394.000 1.000
45.720 400.000 1.000
45.740 405.000 1.000
45.760 419.000 1.000
45.780 390.000 1.000
45.800 439.000 1.000
45.820 422.000 1.000
45.840 421.000 1.000
45.860 405.000 1.000
45.880 414.000 1.000
45.900 428.000 1.000
45.920 420.000 1.000
45.940 411.000 1.000
45.960 443.000 1.000
45.980 447.000 1.000
46.000 404.000 1.000
46.020 419.000 1.000
46.040 419.000 1.000
46.060 451.000 1.000
46.080 486.000 1.000
46.100 454.000 1.000
46.120 446.000 1.000
46.140 416.000 1.000
46.160 433.000 1.000
46.180 459.000 1.000
46.200 468.000 1.000
46.220 453.000 1.000
46.240 438.000 1.000
46.260 463.000 1.000
46.280 463.000 1.000
46.300 497.000 1.000
46.320 512.000 1.000
46.340 475.000 1.000
46.360 527.000 1.000
46.380 540.000 1.000
46.400 592.000 1.000
46.420 594.000 1.000
46.440 607.000 1.000
46.460 663.000 1.000
46.480 638.000 1.000
46.500 725.000 1.000
46.520 686.000 1.000
46.540 697.000 1.000
46.560 716.000 1.000
46.580 686.000 1.000
46.600 692.000 1.000
46.620 668.000 1.000
46.640 651.000 1.000
46.660 684.000 1.000
46.680 671.000 1.000
46.700 605.000 1.000
46.720 623.000 1.000
46.740 644.000 1.000
46.760 602.000 1.000
46.780 565.000 1.000
46.800 595.000 1.000
46.820 616.000 1.000
46.840 604.000 1.000
46.860 596.000 1.000
46.880 581.000 1.000
46.900 557.000 1.000
46.920 578.000 1.000
46.940 572.000 1.000
46.960 566.000 1.000
46.980 539.000 1.000
47.000 582.000 1.000
47.020 557.000 1.000
47.040 542.000 1.000
47.060 562.000 1.000
47.080 554.000 1.000
47.100 522.000 1.000
47.120 527.000 1.000
47.140 531.000 1.000
47.160 570.000 1.000
47.180 561.000 1.000
47.200 559.000 1.000
47.220 517.000 1.000
47.240 538.000 1.000
47.260 547.000 1.000
47.280 541.000 1.000
47.300 512.000 1.000
47.320 541.000 1.000
47.340 522.000 1.000
47.360 486.000 1.000
47.380 480.000 1.000
47.400 516.000 1.000
47.420 513.000 1.000
47.440 470.000 1.000
47.460 509.000 1.000
47.480 499.000 1.000
47.500 556.000 1.000
47.520 506.000 1.000
47.540 513.000 1.000
47.560 526.000 1.000
47.580 508.000 1.000
47.600 500.000 1.000
47.620 524.000 1.000
47.640 542.000 1.000
47.660 519.000 1.000
47.680 535.000 1.000
47.700 531.000 1.000
47.720 553.000 1.000
47.740 509.000 1.000
47.760 502.000 1.000
47.780 527.000 1.000
47.800 500.000 1.000
47.820 475.000 1.000
47.840 445.000 1.000
47.860 446.000 1.000
47.880 467.000 1.000
47.900 441.000 1.000
47.920 474.000 1.000
47.940 471.000 1.000
47.960 484.000 1.000
47.980 457.000 1.000
48.000 435.000 1.000
48.020 446.000 1.000
48.040 466.000 1.000
48.060 474.000 1.000
48.080 500.000 1.000
48.100 491.000 1.000
48.120 489.000 1.000
48.140 477.000 1.000
48.160 461.000 1.000
48.180 498.000 1.000
48.200 527.000 1.000
48.220 533.000 1.000
48.240 535.000 1.000
48.260 543.000 1.000
48.280 600.000 1.000
48.300 556.000 1.000
48.320 595.000 1.000
48.340 633.000 1.000
48.360 629.000 1.000
48.380 681.000 1.000
48.400 670.000 1.000
48.420 688.000 1.000
48.440 743.000 1.000
48.460 734.000 1.000
48.480 774.000 1.000
48.500 810.000 1.000
48.520 788.000 1.000
48.540 799.000 1.000
48.560 771.000 1.000
48.580 798.000 1.000
48.600 764.000 1.000
48.620 773.000 1.000
48.640 745.000 1.000
48.660 704.000 1.000
48.680 672.000 1.000
48.700 672.000 1.000
48.720 652.000 1.000
48.740 654.000 1.000
48.760 670.000 1.000
48.780 591.000 1.000
48.800 568.000 1.000
48.820 607.000 1.000
48.840 599.000 1.000
48.860 615.000 1.000
48.880 601.000 1.000
48.900 651.000 1.000
48.920 631.000 1.000
48.940 586.000 1.000
48.960 609.000 1.000
48.980 653.000 1.000
49.000 641.000 1.000
49.020 627.000 1.000
49.040 600.000 1.000
49.060 532.000 1.000
49.080 575.000 1.000
49.100 558.000 1.000
49.120 584.000 1.000
49.140 558.000 1.000
49.160 546.000 1.000
49.180 524.000 1.000
49.200 485.000 1.000
49.220 481.000 1.000
49.240 516.000 1.000
49.260 497.000 1.000
49.280 464.000 1.000
49.300 444.000 1.000
49.320 434.000 1.000
49.340 422.000 1.000
49.360 453.000 1.000
49.380 427.000 1.000
49.400 425.000 1.000
49.420 447.000 1.000
49.440 440.000 1.000
49.460 438.000 1.000
49.480 476.000 1.000
49.500 426.000 1.000
49.520 417.000 1.000
49.540 408.000 1.000
49.560 397.000 1.000
49.580 441.000 1.000
49.600 419.000 1.000
49.620 405.000 1.000
49.640 434.000 1.000
49.660 383.000 1.000
49.680 407.000 1.000
49.700 453.000 1.000
49.720 443.000 1.000
49.740 402.000 1.000
49.760 407.000 1.000
49.780 416.000 1.000
49.800 446.000 1.000
49.820 376.000 1.000
49.840 396.000 1.000
49.860 409.000 1.000
49.880 440.000 1.000
49.900 404.000 1.000
49.920 398.000 1.000
49.940 412.000 1.000
49.960 390.000 1.000
49.980 401.000 1.000
50.000 414.000 1.000
50.020 414.000 1.000
50.040 399.000 1.000
50.060 405.000 1.000
50.080 397.000 1.000
50.100 403.000 1.000
50.120 390.000 1.000
50.140 415.000 1.000
50.160 399.000 1.000
50.180 420.000 1.000
50.200 415.000 1.000
50.220 402.000 1.000
50.240 427.000 1.000
50.260 417.000 1.000
50.280 386.000 1.000
50.300 403.000 1.000
50.320 414.000 1.000
50.340 413.000 1.000
50.360 445.000 1.000
50.380 429.000 1.000
50.400 404.000 1.000
50.420 414.000 1.000
50.440 435.000 1.000
50.460 435.000 1.000
50.480 441.000 1.000
50.500 432.000 1.000
50.520 441.000 1.000
50.540 438.000 1.000
50.560 425.000 1.000
50.580 430.000 1.000
50.600 460.000 1.000
50.620 479.000 1.000
50.640 497.000 1.000
50.660 496.000 1.000
50.680 471.000 1.000
50.700 481.000 1.000
50.720 518.000 1.000
50.740 491.000 1.000
50.760 562.000 1.000
50.780 542.000 1.000
50.800 572.000 1.000
50.820 661.000 1.000
50.840 661.000 1.000
50.860 710.000 1.000
50.880 734.000 1.000
50.900 686.000 1.000
50.920 668.000 1.000
50.940 744.000 1.000
50.960 711.000 1.000
50.980 775.000 1.000
51.000 710.000 1.000
51.020 688.000 1.000
51.040 691.000 1.000
51.060 664.000 1.000
51.080 646.000 1.000
51.100 641.000 1.000
51.120 688.000 1.000
51.140 688.000 1.000
51.160 701.000 1.000
51.180 729.000 1.000
51.200 723.000 1.000
51.220 709.000 1.000
51.240 695.000 1.000
51.260 702.000 1.000
51.280 693.000 1.000
51.300 706.000 1.000
51.320 706.000 1.000
51.340 679.000 1.000
51.360 644.000 1.000
51.380 632.000 1.000
51.400 625.000 1.000
51.420 586.000 1.000
51.440 581.000 1.000
51.460 612.000 1.000
51.480 558.000 1.000
51.500 538.000 1.000
51.520 578.000 1.000
51.540 574.000 1.000
51.560 542.000 1.000
51.580 555.000 1.000
51.600 565.000 1.000
51.620 548.000 1.000
51.640 573.000 1.000
51.660 573.000 1.000
51.680 563.000 1.000
51.700 624.000 1.000
51.720 653.000 1.000
51.740 683.000 1.000
51.760 656.000 1.000
51.780 662.000 1.000
51.800 730.000 1.000
51.820 729.000 1.000
51.840 745.000 1.000
51.860 751.000 1.000
51.880 771.000 1.000
51.900 758.000 1.000
51.920 776.000 1.000
51.940 797.000 1.000
51.960 790.000 1.000
51.980 836.000 1.000
52.000 808.000 1.000
52.020 820.000 1.000
52.040 862.000 1.000
52.060 795.000 1.000
52.080 796.000 1.000
52.100 726.000 1.000
52.120 753.000 1.000
52.140 712.000 1.000
52.160 677.000 1.000
52.180 685.000 1.000
52.200 649.000 1.000
52.220 610.000 1.000
52.240 599.000 1.000
52.260 609.000 1.000
52.280 609.000 1.000
52.300 600.000 1.000
52.320 590.000 1.000
52.340 540.000 1.000
52.360 584.000 1.000
52.380 596.000 1.000
52.400 610.000 1.000
52.420 583.000 1.000
52.440 577.000 1.000
52.460 598.000 1.000
52.480 579.000 1.000
52.500 572.000 1.000
52.520 626.000 1.000
52.540 639.000 1.000
52.560 696.000 1.000
52.580 682.000 1.000
52.600 719.000 1.000
52.620 680.000 1.000
52.640 706.000 1.000
52.660 687.000 1.000
52.680 647.000 1.000
52.700 632.000 1.000
52.720 626.000 1.000
52.740 597.000 1.000
52.760 576.000 1.000
52.780 603.000 1.000
52.800 556.000 1.000
52.820 553.000 1.000
52.840 525.000 1.000
52.860 541.000 1.000
52.880 546.000 1.000
52.900 502.000 1.000
52.920 495.000 1.000
52.940 487.000 1.000
52.960 510.000 1.000
52.980 500.000 1.000
53.000 480.000 1.000
53.020 491.000 1.000
53.040 492.000 1.000
53.060 435.000 1.000
53.080 489.000 1.000
53.100 436.000 1.000
53.120 453.000 1.000
53.140 476.000 1.000
53.160 464.000 1.000
53.180 482.000 1.000
53.200 489.000 1.000
53.220 513.000 1.000
53.240 483.000 1.000
53.260 464.000 1.000
53.280 474.000 1.000
53.300 514.000 1.000
53.320 493.000 1.000
53.340 492.000 1.000
53.360 458.000 1.000
53.380 477.000 1.000
53.400 489.000 1.000
53.420 490.000 1.000
53.440 516.000 1.000
53.460 501.000 1.000
53.480 529.000 1.000
53.500 512.000 1.000
53.520 498.000 1.000
53.540 505.000 1.000
53.560 477.000 1.000
53.580 514.000 1.000
53.600 508.000 1.000
53.620 565.000 1.000
53.640 516.000 1.000
53.660 547.000 1.000
53.680 536.000 1.000
53.700 509.000 1.000
53.720 558.000 1.000
53.740 574.000 1.000
53.760 545.000 1.000
53.780 511.000 1.000
53.800 473.000 1.000
53.820 562.000 1.000
53.840 538.000 1.000
53.860 514.000 1.000
53.880 533.000 1.000
53.900 516.000 1.000
53.920 478.000 1.000
53.940 480.000 1.000
53.960 463.000 1.000
53.980 478.000 1.000
54.000 456.000 1.000
54.020 468.000 1.000
54.040 454.000 1.000
54.060 394.000 1.000
54.080 416.000 1.000
54.100 438.000 1.000
54.120 434.000 1.000
54.140 420.000 1.000
54.160 425.000 1.000
54.180 426.000 1.000
54.200 430.000 1.000
54.220 452.000 1.000
54.240 451.000 1.000
54.260 432.000 1.000
54.280 417.000 1.000
54.300 419.000 1.000
54.320 465.000 1.000
54.340 481.000 1.000
54.360 427.000 1.000
54.380 449.000 1.000
54.400 491.000 1.000
54.420 450.000 1.000
54.440 475.000 1.000
54.460 491.000 1.000
54.480 491.000 1.000
54.500 470.000 1.000
54.520 486.000 1.000
54.540 502.000 1.000
54.560 523.000 1.000
54.580 518.000 1.000
54.600 549.000 1.000
54.620 526.000 1.000
54.640 578.000 1.000
54.660 555.000 1.000
54.680 596.000 1.000
54.700 552.000 1.000
54.720 591.000 1.000
54.740 617.000 1.000
54.760 619.000 1.000
54.780 612.000 1.000
54.800 557.000 1.000
54.820 587.000 1.000
54.840 610.000 1.000
54.860 588.000 1.000
54.880 556.000 1.000
54.900 617.000 1.000
54.920 573.000 1.000
54.940 530.000 1.000
54.960 520.000 1.000
54.980 522.000 1.000
55.000 492.000 1.000
55.020 491.000 1.000
55.040 471.000 1.000
55.060 492.000 1.000
55.080 522.000 1.000
55.100 520.000 1.000
55.120 482.000 1.000
55.140 522.000 1.000
55.160 498.000 1.000
55.180 544.000 1.000
55.200 570.000 1.000
55.220 512.000 1.000
55.240 549.000 1.000
55.260 547.000 1.000
55.280 554.000 1.000
55.300 533.000 1.000
55.320 543.000 1.000
55.340 514.000 1.000
55.360 522.000 1.000
55.380 536.000 1.000
55.400 555.000 1.000
55.420 510.000 1.000
55.440 475.000 1.000
55.460 496.000 1.000
55.480 483.000 1.000
55.500 452.000 1.000
55.520 452.000 1.000
55.540 449.000 1.000
55.560 471.000 1.000
55.580 435.000 1.000
55.600 441.000 1.000
55.620 461.000 1.000
55.640 437.000 1.000
55.660 429.000 1.000
55.680 436.000 1.000
55.700 444.000 1.000
55.720 433.000 1.000
55.740 466.000 1.000
55.760 437.000 1.000
55.780 457.000 1.000
55.800 494.000 1.000
55.820 473.000 1.000
55.840 452.000 1.000
55.860 417.000 1.000
55.880 428.000 1.000
55.900 409.000 1.000
55.920 468.000 1.000
55.940 413.000 1.000
55.960 446.000 1.000
55.980 461.000 1.000
56.000 452.000 1.000
56.020 451.000 1.000
56.040 468.000 1.000
56.060 458.000 1.000
56.080 448.000 1.000
56.100 483.000 1.000
56.120 437.000 1.000
56.140 467.000 1.000
56.160 461.000 1.000
56.180 459.000 1.000
56.200 437.000 1.000
56.220 416.000 1.000
56.240 391.000 1.000
56.260 410.000 1.000
56.280 419.000 1.000
56.300 424.000 1.000
56.320 441.000 1.000
56.340 443.000 1.000
56.360 410.000 1.000
56.380 407.000 1.000
56.400 405.000 1.000
56.420 395.000 1.000
56.440 397.000 1.000
56.460 398.000 1.000
56.480 415.000 1.000
56.500 431.000 1.000
56.520 387.000 1.000
56.540 437.000 1.000
56.560 408.000 1.000
56.580 412.000 1.000
56.600 413.000 1.000
56.620 445.000 1.000
56.640 413.000 1.000
56.660 407.000 1.000
56.680 432.000 1.000
56.700 437.000 1.000
56.720 440.000 1.000
56.740 435.000 1.000
56.760 437.000 1.000
56.780 468.000 1.000
56.800 450.000 1.000
56.820 469.000 1.000
56.840 474.000 1.000
56.860 459.000 1.000
56.880 495.000 1.000
56.900 510.000 1.000
56.920 499.000 1.000
56.940 513.000 1.000
56.960 518.000 1.000
56.980 540.000 1.000
57.000 514.000 1.000
57.020 506.000 1.000
57.040 542.000 1.000
57.060 584.000 1.000
57.080 526.000 1.000
57.100 619.000 1.000
57.120 601.000 1.000
57.140 599.000 1.000
57.160 586.000 1.000
57.180 529.000 1.000
57.200 545.000 1.000
57.220 582.000 1.000
57.240 547.000 1.000
57.260 565.000 1.000
57.280 520.000 1.000
57.300 500.000 1.000
57.320 526.000 1.000
57.340 528.000 1.000
57.360 485.000 1.000
57.380 458.000 1.000
57.400 506.000 1.000
57.420 447.000 1.000
57.440 481.000 1.000
57.460 501.000 1.000
57.480 515.000 1.000
57.500 481.000 1.000
57.520 490.000 1.000
57.540 463.000 1.000
57.560 507.000 1.000
57.580 505.000 1.000
57.600 501.000 1.000
57.620 497.000 1.000
57.640 486.000 1.000
57.660 503.000 1.000
57.680 519.000 1.000
57.700 520.000 1.000
57.720 515.000 1.000
57.740 488.000 1.000
57.760 494.000 1.000
57.780 508.000 1.000
57.800 469.000 1.000
57.820 486.000 1.000
57.840 499.000 1.000
57.860 462.000 1.000
57.880 424.000 1.000
57.900 414.000 1.000
57.920 438.000 1.000
57.940 445.000 1.000
57.960 418.000 1.000
57.980 434.000 1.000
58.000 411.000 1.000
58.020 429.000 1.000
58.040 484.000 1.000
58.060 432.000 1.000
58.080 433.000 1.000
58.100 428.000 1.000
58.120 438.000 1.000
58.140 465.000 1.000
58.160 461.000 1.000
58.180 451.000 1.000
58.200 426.000 1.000
58.220 439.000 1.000
58.240 463.000 1.000
58.260 422.000 1.000
58.280 498.000 1.000
58.300 466.000 1.000
58.320 506.000 1.000
58.340 496.000 1.000
58.360 504.000 1.000
58.380 522.000 1.000
58.400 508.000 1.000
58.420 510.000 1.000
58.440 513.000 1.000
58.460 519.000 1.000
58.480 541.000 1.000
58.500 513.000 1.000
58.520 520.000 1.000
58.540 558.000 1.000
58.560 615.000 1.000
58.580 632.000 1.000
58.600 590.000 1.000
58.620 592.000 1.000
58.640 587.000 1.000
58.660 576.000 1.000
58.680 576.000 1.000
58.700 532.000 1.000
58.720 557.000 1.000
58.740 533.000 1.000
58.760 519.000 1.000
58.780 501.000 1.000
58.800 489.000 1.000
58.820 478.000 1.000
58.840 456.000 1.000
58.860 440.000 1.000
58.880 454.000 1.000
58.900 434.000 1.000
58.920 450.000 1.000
58.940 442.000 1.000
58.960 434.000 1.000
58.980 428.000 1.000
59.000 421.000 1.000
59.020 407.000 1.000
59.040 413.000 1.000
59.060 445.000 1.000
59.080 409.000 1.000
59.100 434.000 1.000
59.120 428.000 1.000
59.140 446.000 1.000
59.160 420.000 1.000
59.180 449.000 1.000
59.200 447.000 1.000
59.220 397.000 1.000
59.240 397.000 1.000
59.260 396.000 1.000
59.280 428.000 1.000
59.300 464.000 1.000
59.320 453.000 1.000
59.340 457.000 1.000
59.360 438.000 1.000
59.380 446.000 1.000
59.400 444.000 1.000
59.420 460.000 1.000
59.440 490.000 1.000
59.460 509.000 1.000
59.480 495.000 1.000
59.500 464.000 1.000
59.520 475.000 1.000
59.540 557.000 1.000
59.560 516.000 1.000
59.580 537.000 1.000
59.600 564.000 1.000
59.620 609.000 1.000
59.640 603.000 1.000
59.660 621.000 1.000
59.680 641.000 1.000
59.700 564.000 1.000
59.720 585.000 1.000
59.740 627.000 1.000
59.760 591.000 1.000
59.780 547.000 1.000
59.800 529.000 1.000
59.820 528.000 1.000
59.840 532.000 1.000
59.860 522.000 1.000
59.880 513.000 1.000
59.900 496.000 1.000
59.920 473.000 1.000
59.940 473.000 1.000
59.960 489.000 1.000
59.980 455.000 1.000
60.000 445.000 1.000
60.020 411.000 1.000
60.040 423.000 1.000
60.060 418.000 1.000
60.080 418.000 1.000
60.100 401.000 1.000
60.120 436.000 1.000
60.140 422.000 1.000
60.160 380.000 1.000
60.180 397.000 1.000
60.200 417.000 1.000
60.220 386.000 1.000
60.240 380.000 1.000
60.260 388.000 1.000
60.280 379.000 1.000
60.300 362.000 1.000
60.320 399.000 1.000
60.340 379.000 1.000
60.360 421.000 1.000
60.380 385.000 1.000
60.400 383.000 1.000
60.420 367.000 1.000
60.440 331.000 1.000
60.460 375.000 1.000
60.480 436.000 1.000
60.500 397.000 1.000
60.520 398.000 1.000
60.540 387.000 1.000
60.560 376.000 1.000
60.580 391.000 1.000
60.600 365.000 1.000
60.620 395.000 1.000
60.640 392.000 1.000
60.660 367.000 1.000
60.680 408.000 1.000
60.700 423.000 1.000
60.720 382.000 1.000
60.740 401.000 1.000
60.760 399.000 1.000
60.780 400.000 1.000
60.800 411.000 1.000
60.820 385.000 1.000
60.840 396.000 1.000
60.860 391.000 1.000
60.880 407.000 1.000
60.900 344.000 1.000
60.920 395.000 1.000
60.940 405.000 1.000
60.960 396.000 1.000
60.980 391.000 1.000
61.000 400.000 1.000
61.020 382.000 1.000
61.040 361.000 1.000
61.060 364.000 1.000
61.080 383.000 1.000
61.100 379.000 1.000
61.120 373.000 1.000
61.140 367.000 1.000
61.160 346.000 1.000
61.180 369.000 1.000
61.200 369.000 1.000
61.220 377.000 1.000
61.240 343.000 1.000
61.260 369.000 1.000
61.280 401.000 1.000
61.300 360.000 1.000
61.320 352.000 1.000
61.340 384.000 1.000
61.360 339.000 1.000
61.380 355.000 1.000
61.400 355.000 1.000
61.420 380.000 1.000
61.440 379.000 1.000
61.460 402.000 1.000
61.480 394.000 1.000
61.500 379.000 1.000
61.520 393.000 1.000
61.540 379.000 1.000
61.560 367.000 1.000
61.580 385.000 1.000
61.600 368.000 1.000
61.620 383.000 1.000
61.640 367.000 1.000
61.660 383.000 1.000
61.680 385.000 1.000
61.700 400.000 1.000
61.720 371.000 1.000
61.740 432.000 1.000
61.760 396.000 1.000
61.780 396.000 1.000
61.800 402.000 1.000
61.820 416.000 1.000
61.840 439.000 1.000
61.860 405.000 1.000
61.880 396.000 1.000
61.900 393.000 1.000
61.920 379.000 1.000
61.940 392.000 1.000
61.960 394.000 1.000
61.980 411.000 1.000
62.000 409.000 1.000
62.020 433.000 1.000
62.040 418.000 1.000
62.060 381.000 1.000
62.080 434.000 1.000
62.100 434.000 1.000
62.120 465.000 1.000
62.140 425.000 1.000
62.160 422.000 1.000
62.180 443.000 1.000
62.200 446.000 1.000
62.220 460.000 1.000
62.240 401.000 1.000
62.260 455.000 1.000
62.280 458.000 1.000
62.300 471.000 1.000
62.320 451.000 1.000
62.340 478.000 1.000
62.360 454.000 1.000
62.380 474.000 1.000
62.400 462.000 1.000
62.420 460.000 1.000
62.440 432.000 1.000
62.460 448.000 1.000
62.480 425.000 1.000
62.500 451.000 1.000
62.520 439.000 1.000
62.540 437.000 1.000
62.560 471.000 1.000
62.580 448.000 1.000
62.600 441.000 1.000
62.620 457.000 1.000
62.640 445.000 1.000
62.660 482.000 1.000
62.680 481.000 1.000
62.700 516.000 1.000
62.720 493.000 1.000
62.740 486.000 1.000
62.760 498.000 1.000
62.780 473.000 1.000
62.800 491.000 1.000
62.820 519.000 1.000
62.840 549.000 1.000
62.860 489.000 1.000
62.880 537.000 1.000
62.900 548.000 1.000
62.920 545.000 1.000
62.940 527.000 1.000
62.960 541.000 1.000
62.980 510.000 1.000
63.000 526.000 1.000
63.020 555.000 1.000
63.040 500.000 1.000
63.060 519.000 1.000
63.080 498.000 1.000
63.100 526.000 1.000
63.120 554.000 1.000
63.140 530.000 1.000
63.160 556.000 1.000
63.180 525.000 1.000
63.200 534.000 1.000
63.220 533.000 1.000
63.240 488.000 1.000
63.260 498.000 1.000
63.280 500.000 1.000
63.300 488.000 1.000
63.320 470.000 1.000
63.340 494.000 1.000
63.360 513.000 1.000
63.380 471.000 1.000
63.400 472.000 1.000
63.420 479.000 1.000
63.440 443.000 1.000
63.460 460.000 1.000
63.480 462.000 1.000
63.500 475.000 1.000
63.520 486.000 1.000
63.540 505.000 1.000
63.560 477.000 1.000
63.580 511.000 1.000
63.600 532.000 1.000
63.620 510.000 1.000
63.640 508.000 1.000
63.660 517.000 1.000
63.680 505.000 1.000
63.700 537.000 1.000
63.720 567.000 1.000
63.740 551.000 1.000
63.760 512.000 1.000
63.780 545.000 1.000
63.800 490.000 1.000
63.820 525.000 1.000
63.840 524.000 1.000
63.860 499.000 1.000
63.880 502.000 1.000
63.900 485.000 1.000
63.920 485.000 1.000
63.940 479.000 1.000
63.960 433.000 1.000
63.980 479.000 1.000
64.000 502.000 1.000
64.020 440.000 1.000
64.040 427.000 1.000
64.060 409.000 1.000
64.080 425.000 1.000
64.100 436.000 1.000
64.120 416.000 1.000
64.140 449.000 1.000
64.160 401.000 1.000
64.180 421.000 1.000
64.200 394.000 1.000
64.220 421.000 1.000
64.240 455.000 1.000
64.260 446.000 1.000
64.280 443.000 1.000
64.300 428.000 1.000
64.320 464.000 1.000
64.340 474.000 1.000
64.360 471.000 1.000
64.380 476.000 1.000
64.400 470.000 1.000
64.420 454.000 1.000
64.440 416.000 1.000
64.460 426.000 1.000
64.480 459.000 1.000
64.500 427.000 1.000
64.520 433.000 1.000
64.540 422.000 1.000
64.560 434.000 1.000
64.580 446.000 1.000
64.600 440.000 1.000
64.620 394.000 1.000
64.640 405.000 1.000
64.660 398.000 1.000
64.680 380.000 1.000
64.700 418.000 1.000
64.720 410.000 1.000
64.740 413.000 1.000
64.760 422.000 1.000
64.780 407.000 1.000
64.800 394.000 1.000
64.820 385.000 1.000
64.840 395.000 1.000
64.860 374.000 1.000
64.880 359.000 1.000
64.900 397.000 1.000
64.920 341.000 1.000
64.940 375.000 1.000
64.960 389.000 1.000
64.980 397.000 1.000
65.000 363.000 1.000
65.020 373.000 1.000
65.040 385.000 1.000
65.060 386.000 1.000
65.080 377.000 1.000
65.100 377.000 1.000
65.120 388.000 1.000
65.140 385.000 1.000
65.160 392.000 1.000
65.180 378.000 1.000
65.200 375.000 1.000
65.220 377.000 1.000
65.240 400.000 1.000
65.260 367.000 1.000
65.280 362.000 1.000
65.300 356.000 1.000
65.320 391.000 1.000
65.340 415.000 1.000
65.360 389.000 1.000
65.380 369.000 1.000
65.400 377.000 1.000
65.420 379.000 1.000
65.440 376.000 1.000
65.460 384.000 1.000
65.480 407.000 1.000
65.500 380.000 1.000
65.520 390.000 1.000
65.540 373.000 1.000
65.560 380.000 1.000
65.580 413.000 1.000
65.600 410.000 1.000
65.620 417.000 1.000
65.640 431.000 1.000
65.660 395.000 1.000
65.680 386.000 1.000
65.700 421.000 1.000
65.720 415.000 1.000
65.740 422.000 1.000
65.760 430.000 1.000
65.780 427.000 1.000
65.800 446.000 1.000
65.820 413.000 1.000
65.840 427.000 1.000
65.860 424.000 1.000
65.880 447.000 1.000
65.900 469.000 1.000
65.920 477.000 1.000
65.940 490.000 1.000
65.960 486.000 1.000
65.980 525.000 1.000
66.000 510.000 1.000
66.020 507.000 1.000
66.040 514.000 1.000
66.060 525.000 1.000
66.080 526.000 1.000
66.100 530.000 1.000
66.120 528.000 1.000
66.140 539.000 1.000
66.160 528.000 1.000
66.180 529.000 1.000
66.200 546.000 1.000
66.220 471.000 1.000
66.240 468.000 1.000
66.260 471.000 1.000
66.280 461.000 1.000
66.300 521.000 1.000
66.320 494.000 1.000
66.340 473.000 1.000
66.360 507.000 1.000
66.380 457.000 1.000
66.400 458.000 1.000
66.420 461.000 1.000
66.440 473.000 1.000
66.460 428.000 1.000
66.480 437.000 1.000
66.500 441.000 1.000
66.520 444.000 1.000
66.540 458.000 1.000
66.560 379.000 1.000
66.580 393.000 1.000
66.600 398.000 1.000
66.620 402.000 1.000
66.640 388.000 1.000
66.660 395.000 1.000
66.680 419.000 1.000
66.700 378.000 1.000
66.720 438.000 1.000
66.740 372.000 1.000
66.760 379.000 1.000
66.780 378.000 1.000
66.800 378.000 1.000
66.820 399.000 1.000
66.840 397.000 1.000
66.860 360.000 1.000
66.880 365.000 1.000
66.900 367.000 1.000
66.920 370.000 1.000
66.940 414.000 1.000
66.960 398.000 1.000
66.980 375.000 1.000
67.000 383.000 1.000
67.020 376.000 1.000
67.040 403.000 1.000
67.060 369.000 1.000
67.080 364.000 1.000
67.100 375.000 1.000
67.120 374.000 1.000
67.140 381.000 1.000
67.160 399.000 1.000
67.180 349.000 1.000
67.200 370.000 1.000
67.220 396.000 1.000
67.240 365.000 1.000
67.260 337.000 1.000
67.280 367.000 1.000
67.300 349.000 1.000
67.320 328.000 1.000
67.340 385.000 1.000
67.360 385.000 1.000
67.380 350.000 1.000
67.400 347.000 1.000
67.420 345.000 1.000
67.440 348.000 1.000
67.460 371.000 1.000
67.480 348.000 1.000
67.500 364.000 1.000
67.520 358.000 1.000
67.540 372.000 1.000
67.560 343.000 1.000
67.580 352.000 1.000
67.600 336.000 1.000
67.620 354.000 1.000
67.640 350.000 1.000
67.660 326.000 1.000
67.680 349.000 1.000
67.700 324.000 1.000
67.720 357.000 1.000
67.740 351.000 1.000
67.760 370.000 1.000
67.780 351.000 1.000
67.800 381.000 1.000
67.820 370.000 1.000
67.840 333.000 1.000
67.860 350.000 1.000
67.880 356.000 1.000
67.900 351.000 1.000
67.920 370.000 1.000
67.940 387.000 1.000
67.960 383.000 1.000
67.980 387.000 1.000
68.000 382.000 1.000
68.020 393.000 1.000
68.040 377.000 1.000
68.060 357.000 1.000
68.080 395.000 1.000
68.100 370.000 1.000
68.120 384.000 1.000
68.140 388.000 1.000
68.160 384.000 1.000
68.180 373.000 1.000
68.200 383.000 1.000
68.220 388.000 1.000
68.240 380.000 1.000
68.260 370.000 1.000
68.280 390.000 1.000
68.300 352.000 1.000
68.320 397.000 1.000
68.340 385.000 1.000
68.360 376.000 1.000
68.380 359.000 1.000
68.400 387.000 1.000
68.420 377.000 1.000
68.440 364.000 1.000
68.460 403.000 1.000
68.480 384.000 1.000
68.500 385.000 1.000
68.520 410.000 1.000
68.540 418.000 1.000
68.560 395.000 1.000
68.580 388.000 1.000
68.600 408.000 1.000
68.620 418.000 1.000
68.640 435.000 1.000
68.660 409.000 1.000
68.680 408.000 1.000
68.700 430.000 1.000
68.720 434.000 1.000
68.740 444.000 1.000
68.760 444.000 1.000
68.780 460.000 1.000
68.800 499.000 1.000
68.820 481.000 1.000
68.840 480.000 1.000
68.860 497.000 1.000
68.880 519.000 1.000
68.900 494.000 1.000
68.920 513.000 1.000
68.940 516.000 1.000
68.960 498.000 1.000
68.980 496.000 1.000
69.000 484.000 1.000
69.020 467.000 1.000
69.040 473.000 1.000
69.060 501.000 1.000
69.080 496.000 1.000
69.100 487.000 1.000
69.120 451.000 1.000
69.140 442.000 1.000
69.160 400.000 1.000
69.180 396.000 1.000
69.200 425.000 1.000
69.220 432.000 1.000
69.240 469.000 1.000
69.260 420.000 1.000
69.280 411.000 1.000
69.300 433.000 1.000
69.320 433.000 1.000
69.340 409.000 1.000
69.360 410.000 1.000
69.380 422.000 1.000
69.400 429.000 1.000
69.420 384.000 1.000
69.440 390.000 1.000
69.460 397.000 1.000
69.480 420.000 1.000
69.500 404.000 1.000
69.520 375.000 1.000
69.540 401.000 1.000
69.560 381.000 1.000
69.580 397.000 1.000
69.600 441.000 1.000
69.620 381.000 1.000
69.640 430.000 1.000
69.660 411.000 1.000
69.680 429.000 1.000
69.700 434.000 1.000
69.720 430.000 1.000
69.740 447.000 1.000
69.760 481.000 1.000
69.780 456.000 1.000
69.800 455.000 1.000
69.820 431.000 1.000
69.840 468.000 1.000
69.860 428.000 1.000
69.880 394.000 1.000
69.900 391.000 1.000
69.920 414.000 1.000
69.940 376.000 1.000
69.960 412.000 1.000
69.980 426.000 1.000
70.000 393.000 1.000
70.020 405.000 1.000
70.040 359.000 1.000
70.060 410.000 1.000
70.080 383.000 1.000
70.100 379.000 1.000
70.120 353.000 1.000
70.140 383.000 1.000
70.160 325.000 1.000
70.180 328.000 1.000
70.200 347.000 1.000
70.220 364.000 1.000
70.240 372.000 1.000
70.260 363.000 1.000
70.280 326.000 1.000
70.300 334.000 1.000
70.320 353.000 1.000
70.340 375.000 1.000
70.360 387.000 1.000
70.380 351.000 1.000
70.400 348.000 1.000
70.420 379.000 1.000
70.440 345.000 1.000
70.460 383.000 1.000
70.480 377.000 1.000
70.500 361.000 1.000
70.520 351.000 1.000
70.540 344.000 1.000
70.560 340.000 1.000
70.580 344.000 1.000
70.600 340.000 1.000
70.620 336.000 1.000
70.640 298.000 1.000
70.660 336.000 1.000
70.680 371.000 1.000
70.700 388.000 1.000
70.720 366.000 1.000
70.740 365.000 1.000
70.760 356.000 1.000
70.780 343.000 1.000
70.800 350.000 1.000
70.820 365.000 1.000
70.840 338.000 1.000
70.860 334.000 1.000
70.880 384.000 1.000
70.900 355.000 1.000
70.920 370.000 1.000
70.940 348.000 1.000
70.960 352.000 1.000
70.980 333.000 1.000
71.000 343.000 1.000
71.020 323.000 1.000
71.040 329.000 1.000
71.060 341.000 1.000
71.080 329.000 1.000
71.100 347.000 1.000
71.120 324.000 1.000
71.140 317.000 1.000
71.160 328.000 1.000
71.180 354.000 1.000
71.200 357.000 1.000
71.220 362.000 1.000
71.240 372.000 1.000
71.260 365.000 1.000
71.280 342.000 1.000
71.300 385.000 1.000
71.320 369.000 1.000
71.340 355.000 1.000
71.360 345.000 1.000
71.380 370.000 1.000
71.400 374.000 1.000
71.420 370.000 1.000
71.440 370.000 1.000
71.460 380.000 1.000
71.480 358.000 1.000
71.500 381.000 1.000
71.520 356.000 1.000
71.540 375.000 1.000
71.560 397.000 1.000
71.580 404.000 1.000
71.600 444.000 1.000
71.620 414.000 1.000
71.640 379.000 1.000
71.660 374.000 1.000
71.680 393.000 1.000
71.700 386.000 1.000
71.720 401.000 1.000
71.740 371.000 1.000
71.760 420.000 1.000
71.780 376.000 1.000
71.800 372.000 1.000
71.820 415.000 1.000
71.840 415.000 1.000
71.860 408.000 1.000
71.880 419.000 1.000
71.900 443.000 1.000
71.920 424.000 1.000
71.940 437.000 1.000
71.960 431.000 1.000
71.980 412.000 1.000
72.000 446.000 1.000
72.020 403.000 1.000
72.040 437.000 1.000
72.060 442.000 1.000
72.080 394.000 1.000
72.100 418.000 1.000
72.120 419.000 1.000
72.140 404.000 1.000
72.160 396.000 1.000
72.180 421.000 1.000
72.200 398.000 1.000
72.220 413.000 1.000
72.240 390.000 1.000
72.260 390.000 1.000
72.280 384.000 1.000
72.300 366.000 1.000
72.320 373.000 1.000
72.340 378.000 1.000
72.360 347.000 1.000
72.380 322.000 1.000
72.400 355.000 1.000
72.420 358.000 1.000
72.440 329.000 1.000
72.460 350.000 1.000
72.480 342.000 1.000
72.500 319.000 1.000
72.520 332.000 1.000
72.540 343.000 1.000
72.560 344.000 1.000
72.580 336.000 1.000
72.600 302.000 1.000
72.620 312.000 1.000
72.640 347.000 1.000
72.660 325.000 1.000
72.680 335.000 1.000
72.700 349.000 1.000
72.720 323.000 1.000
72.740 324.000 1.000
72.760 346.000 1.000
72.780 342.000 1.000
72.800 356.000 1.000
72.820 286.000 1.000
72.840 347.000 1.000
72.860 342.000 1.000
72.880 304.000 1.000
72.900 307.000 1.000
72.920 334.000 1.000
72.940 319.000 1.000
72.960 334.000 1.000
72.980 308.000 1.000
73.000 302.000 1.000
73.020 320.000 1.000
73.040 330.000 1.000
73.060 342.000 1.000
73.080 325.000 1.000
73.100 314.000 1.000
73.120 340.000 1.000
73.140 329.000 1.000
73.160 326.000 1.000
73.180 343.000 1.000
73.200 359.000 1.000
73.220 340.000 1.000
73.240 329.000 1.000
73.260 339.000 1.000
73.280 352.000 1.000
73.300 316.000 1.000
73.320 324.000 1.000
73.340 323.000 1.000
73.360 320.000 1.000
73.380 365.000 1.000
73.400 322.000 1.000
73.420 325.000 1.000
73.440 332.000 1.000
73.460 317.000 1.000
73.480 343.000 1.000
73.500 331.000 1.000
73.520 324.000 1.000
73.540 360.000 1.000
73.560 321.000 1.000
73.580 322.000 1.000
73.600 321.000 1.000
73.620 322.000 1.000
73.640 328.000 1.000
73.660 336.000 1.000
73.680 318.000 1.000
73.700 309.000 1.000
73.720 310.000 1.000
73.740 347.000 1.000
73.760 321.000 1.000
73.780 306.000 1.000
73.800 301.000 1.000
73.820 316.000 1.000
73.840 314.000 1.000
73.860 329.000 1.000
73.880 328.000 1.000
73.900 335.000 1.000
73.920 316.000 1.000
73.940 298.000 1.000
73.960 329.000 1.000
73.980 280.000 1.000
74.000 329.000 1.000
74.020 344.000 1.000
74.040 356.000 1.000
74.060 316.000 1.000
74.080 342.000 1.000
74.100 325.000 1.000
74.120 338.000 1.000
74.140 332.000 1.000
74.160 332.000 1.000
74.180 325.000 1.000
74.200 347.000 1.000
74.220 343.000 1.000
74.240 361.000 1.000
74.260 351.000 1.000
74.280 367.000 1.000
74.300 346.000 1.000
74.320 349.000 1.000
74.340 358.000 1.000
74.360 360.000 1.000
74.380 362.000 1.000
74.400 347.000 1.000
74.420 358.000 1.000
74.440 363.000 1.000
74.460 356.000 1.000
74.480 358.000 1.000
74.500 382.000 1.000
74.520 365.000 1.000
74.540 363.000 1.000
74.560 379.000 1.000
74.580 400.000 1.000
74.600 379.000 1.000
74.620 399.000 1.000
74.640 405.000 1.000
74.660 397.000 1.000
74.680 392.000 1.000
74.700 420.000 1.000
74.720 402.000 1.000
74.740 400.000 1.000
74.760 441.000 1.000
74.780 410.000 1.000
74.800 423.000 1.000
74.820 425.000 1.000
74.840 407.000 1.000
74.860 425.000 1.000
74.880 467.000 1.000
74.900 444.000 1.000
74.920 455.000 1.000
74.940 420.000 1.000
74.960 467.000 1.000
74.980 436.000 1.000
75.000 401.000 1.000
75.020 431.000 1.000
75.040 393.000 1.000
75.060 399.000 1.000
75.080 410.000 1.000
75.100 371.000 1.000
75.120 401.000 1.000
75.140 403.000 1.000
75.160 400.000 1.000
75.180 398.000 1.000
75.200 377.000 1.000
75.220 378.000 1.000
75.240 382.000 1.000
75.260 389.000 1.000
75.280 367.000 1.000
75.300 395.000 1.000
75.320 396.000 1.000
75.340 390.000 1.000
75.360 409.000 1.000
75.380 413.000 1.000
75.400 376.000 1.000
75.420 405.000 1.000
75.440 406.000 1.000
75.460 415.000 1.000
75.480 427.000 1.000
75.500 423.000 1.000
75.520 411.000 1.000
75.540 377.000 1.000
75.560 419.000 1.000
75.580 413.000 1.000
75.600 430.000 1.000
75.620 455.000 1.000
75.640 459.000 1.000
75.660 446.000 1.000
75.680 428.000 1.000
75.700 447.000 1.000
75.720 424.000 1.000
75.740 451.000 1.000
75.760 441.000 1.000
75.780 441.000 1.000
75.800 466.000 1.000
75.820 460.000 1.000
75.840 434.000 1.000
75.860 439.000 1.000
75.880 435.000 1.000
75.900 424.000 1.000
75.920 450.000 1.000
75.940 438.000 1.000
75.960 418.000 1.000
75.980 448.000 1.000
76.000 423.000 1.000
76.020 454.000 1.000
76.040 419.000 1.000
76.060 431.000 1.000
76.080 461.000 1.000
76.100 465.000 1.000
76.120 446.000 1.000
76.140 442.000 1.000
76.160 436.000 1.000
76.180 436.000 1.000
76.200 457.000 1.000
76.220 430.000 1.000
76.240 444.000 1.000
76.260 447.000 1.000
76.280 437.000 1.000
76.300 405.000 1.000
76.320 456.000 1.000
76.340 422.000 1.000
76.360 412.000 1.000
76.380 371.000 1.000
76.400 389.000 1.000
76.420 402.000 1.000
76.440 389.000 1.000
76.460 377.000 1.000
76.480 392.000 1.000
76.500 384.000 1.000
76.520 387.000 1.000
76.540 393.000 1.000
76.560 399.000 1.000
76.580 377.000 1.000
76.600 400.000 1.000
76.620 384.000 1.000
76.640 358.000 1.000
76.660 354.000 1.000
76.680 385.000 1.000
76.700 325.000 1.000
76.720 385.000 1.000
76.740 371.000 1.000
76.760 365.000 1.000
76.780 337.000 1.000
76.800 348.000 1.000
76.820 367.000 1.000
76.840 352.000 1.000
76.860 354.000 1.000
76.880 363.000 1.000
76.900 358.000 1.000
76.920 347.000 1.000
76.940 377.000 1.000
76.960 360.000 1.000
76.980 333.000 1.000
77.000 375.000 1.000
77.020 377.000 1.000
77.040 380.000 1.000
77.060 386.000 1.000
77.080 373.000 1.000
77.100 356.000 1.000
77.120 378.000 1.000
77.140 363.000 1.000
77.160 396.000 1.000
77.180 389.000 1.000
77.200 365.000 1.000
77.220 381.000 1.000
77.240 381.000 1.000
77.260 403.000 1.000
77.280 404.000 1.000
77.300 391.000 1.000
77.320 413.000 1.000
77.340 409.000 1.000
77.360 387.000 1.000
77.380 389.000 1.000
77.400 407.000 1.000
77.420 410.000 1.000
77.440 411.000 1.000
77.460 419.000 1.000
77.480 404.000 1.000
77.500 417.000 1.000
77.520 447.000 1.000
77.540 418.000 1.000
77.560 424.000 1.000
77.580 410.000 1.000
77.600 448.000 1.000
77.620 428.000 1.000
77.640 436.000 1.000
77.660 431.000 1.000
77.680 417.000 1.000
77.700 395.000 1.000
77.720 408.000 1.000
77.740 429.000 1.000
77.760 454.000 1.000
77.780 393.000 1.000
77.800 404.000 1.000
77.820 421.000 1.000
77.840 432.000 1.000
77.860 425.000 1.000
77.880 459.000 1.000
77.900 468.000 1.000
77.920 440.000 1.000
77.940 459.000 1.000
77.960 449.000 1.000
77.980 416.000 1.000
78.000 447.000 1.000
78.020 431.000 1.000
78.040 449.000 1.000
78.060 431.000 1.000
78.080 459.000 1.000
78.100 384.000 1.000
78.120 418.000 1.000
78.140 427.000 1.000
78.160 398.000 1.000
78.180 402.000 1.000
78.200 399.000 1.000
78.220 388.000 1.000
78.240 416.000 1.000
78.260 435.000 1.000
78.280 375.000 1.000
78.300 356.000 1.000
78.320 368.000 1.000
78.340 349.000 1.000
78.360 374.000 1.000
78.380 397.000 1.000
78.400 338.000 1.000
78.420 345.000 1.000
78.440 365.000 1.000
78.460 350.000 1.000
78.480 333.000 1.000
78.500 356.000 1.000
78.520 320.000 1.000
78.540 352.000 1.000
78.560 343.000 1.000
78.580 320.000 1.000
78.600 312.000 1.000
78.620 359.000 1.000
78.640 346.000 1.000
78.660 352.000 1.000
78.680 317.000 1.000
78.700 322.000 1.000
78.720 306.000 1.000
78.740 334.000 1.000
78.760 329.000 1.000
78.780 347.000 1.000
78.800 322.000 1.000
78.820 316.000 1.000
78.840 329.000 1.000
78.860 319.000 1.000
78.880 327.000 1.000
78.900 321.000 1.000
78.920 323.000 1.000
78.940 341.000 1.000
78.960 319.000 1.000
78.980 331.000 1.000
79.000 314.000 1.000
79.020 341.000 1.000
79.040 350.000 1.000
79.060 291.000 1.000
79.080 346.000 1.000
79.100 330.000 1.000
79.120 330.000 1.000
79.140 314.000 1.000
79.160 334.000 1.000
79.180 333.000 1.000
79.200 341.000 1.000
79.220 379.000 1.000
79.240 342.000 1.000
79.260 332.000 1.000
79.280 329.000 1.000
79.300 329.000 1.000
79.320 355.000 1.000
79.340 339.000 1.000
79.360 327.000 1.000
79.380 342.000 1.000
79.400 341.000 1.000
79.420 362.000 1.000
79.440 349.000 1.000
79.460 312.000 1.000
79.480 351.000 1.000
79.500 366.000 1.000
79.520 371.000 1.000
79.540 393.000 1.000
79.560 367.000 1.000
79.580 385.000 1.000
79.600 396.000 1.000
79.620 390.000 1.000
79.640 372.000 1.000
79.660 333.000 1.000
79.680 387.000 1.000
79.700 369.000 1.000
79.720 381.000 1.000
79.740 369.000 1.000
79.760 357.000 1.000
79.780 373.000 1.000
79.800 335.000 1.000
79.820 320.000 1.000
79.840 349.000 1.000
79.860 347.000 1.000
79.880 380.000 1.000
79.900 328.000 1.000
79.920 304.000 1.000
79.940 352.000 1.000
79.960 322.000 1.000
79.980 309.000 1.000
80.000 321.000 1.000
80.020 313.000 1.000
80.040 333.000 1.000
80.060 283.000 1.000
80.080 297.000 1.000
80.100 312.000 1.000
80.120 296.000 1.000
80.140 297.000 1.000
80.160 286.000 1.000
80.180 281.000 1.000
80.200 317.000 1.000
80.220 289.000 1.000
80.240 285.000 1.000
80.260 319.000 1.000
80.280 297.000 1.000
80.300 288.000 1.000
80.320 314.000 1.000
80.340 304.000 1.000
80.360 313.000 1.000
80.380 294.000 1.000
80.400 276.000 1.000
80.420 277.000 1.000
80.440 306.000 1.000
80.460 283.000 1.000
80.480 318.000 1.000
80.500 316.000 1.000
80.520 283.000 1.000
80.540 300.000 1.000
80.560 279.000 1.000
80.580 315.000 1.000
80.600 300.000 1.000
80.620 302.000 1.000
80.640 304.000 1.000
80.660 304.000 1.000
80.680 310.000 1.000
80.700 295.000 1.000
80.720 296.000 1.000
80.740 311.000 1.000
80.760 292.000 1.000
80.780 294.000 1.000
80.800 299.000 1.000
80.820 328.000 1.000
80.840 316.000 1.000
80.860 293.000 1.000
80.880 324.000 1.000
80.900 304.000 1.000
80.920 275.000 1.000
80.940 288.000 1.000
80.960 305.000 1.000
80.980 333.000 1.000
81.000 309.000 1.000
81.020 284.000 1.000
81.040 275.000 1.000
81.060 300.000 1.000
81.080 298.000 1.000
81.100 294.000 1.000
81.120 304.000 1.000
81.140 295.000 1.000
81.160 304.000 1.000
81.180 318.000 1.000
81.200 328.000 1.000
81.220 302.000 1.000
81.240 311.000 1.000
81.260 333.000 1.000
81.280 293.000 1.000
81.300 303.000 1.000
81.320 312.000 1.000
81.340 306.000 1.000
81.360 304.000 1.000
81.380 296.000 1.000
81.400 295.000 1.000
81.420 298.000 1.000
81.440 323.000 1.000
81.460 296.000 1.000
81.480 305.000 1.000
81.500 305.000 1.000
81.520 276.000 1.000
81.540 292.000 1.000
81.560 286.000 1.000
81.580 295.000 1.000
81.600 302.000 1.000
81.620 316.000 1.000
81.640 270.000 1.000
81.660 284.000 1.000
81.680 312.000 1.000
81.700 310.000 1.000
81.720 271.000 1.000
81.740 275.000 1.000
81.760 275.000 1.000
81.780 285.000 1.000
81.800 271.000 1.000
81.820 272.000 1.000
81.840 273.000 1.000
81.860 258.000 1.000
81.880 255.000 1.000
81.900 259.000 1.000
81.920 265.000 1.000
81.940 276.000 1.000
81.960 271.000 1.000
81.980 266.000 1.000
82.000 269.000 1.000
82.020 274.000 1.000
82.040 265.000 1.000
82.060 302.000 1.000
82.080 285.000 1.000
82.100 283.000 1.000
82.120 251.000 1.000
82.140 274.000 1.000
82.160 289.000 1.000
82.180 286.000 1.000
82.200 275.000 1.000
82.220 254.000 1.000
82.240 263.000 1.000
82.260 273.000 1.000
82.280 267.000 1.000
82.300 266.000 1.000
82.320 267.000 1.000
82.340 267.000 1.000
82.360 276.000 1.000
82.380 301.000 1.000
82.400 271.000 1.000
82.420 244.000 1.000
82.440 267.000 1.000
82.460 274.000 1.000
82.480 259.000 1.000
82.500 283.000 1.000
82.520 287.000 1.000
82.540 285.000 1.000
82.560 283.000 1.000
82.580 299.000 1.000
82.600 295.000 1.000
82.620 281.000 1.000
82.640 283.000 1.000
82.660 272.000 1.000
82.680 274.000 1.000
82.700 283.000 1.000
82.720 254.000 1.000
82.740 272.000 1.000
82.760 300.000 1.000
82.780 291.000 1.000
82.800 270.000 1.000
82.820 260.000 1.000
82.840 264.000 1.000
82.860 262.000 1.000
82.880 254.000 1.000
82.900 252.000 1.000
82.920 281.000 1.000
82.940 263.000 1.000
82.960 266.000 1.000
82.980 294.000 1.000
83.000 264.000 1.000
83.020 255.000 1.000
83.040 284.000 1.000
83.060 286.000 1.000
83.080 241.000 1.000
83.100 281.000 1.000
83.120 284.000 1.000
83.140 278.000 1.000
83.160 259.000 1.000
83.180 244.000 1.000
83.200 279.000 1.000
83.220 279.000 1.000
83.240 280.000 1.000
83.260 269.000 1.000
83.280 287.000 1.000
83.300 255.000 1.000
83.320 245.000 1.000
83.340 279.000 1.000
83.360 265.000 1.000
83.380 284.000 1.000
83.400 276.000 1.000
83.420 285.000 1.000
83.440 258.000 1.000
83.460 252.000 1.000
83.480 266.000 1.000
83.500 250.000 1.000
83.520 267.000 1.000
83.540 273.000 1.000
83.560 279.000 1.000
83.580 292.000 1.000
83.600 268.000 1.000
83.620 281.000 1.000
83.640 269.000 1.000
83.660 274.000 1.000
83.680 263.000 1.000
83.700 282.000 1.000
83.720 286.000 1.000
83.740 259.000 1.000
83.760 290.000 1.000
83.780 262.000 1.000
83.800 279.000 1.000
83.820 250.000 1.000
83.840 244.000 1.000
83.860 270.000 1.000
83.880 248.000 1.000
83.900 237.000 1.000
83.920 262.000 1.000
83.940 244.000 1.000
83.960 259.000 1.000
83.980 284.000 1.000
84.000 284.000 1.000
84.020 279.000 1.000
84.040 298.000 1.000
84.060 272.000 1.000
84.080 252.000 1.000
84.100 286.000 1.000
84.120 303.000 1.000
84.140 277.000 1.000
84.160 273.000 1.000
84.180 259.000 1.000
84.200 272.000 1.000
84.220 286.000 1.000
84.240 276.000 1.000
84.260 235.000 1.000
84.280 251.000 1.000
84.300 284.000 1.000
84.320 292.000 1.000
84.340 291.000 1.000
84.360 252.000 1.000
84.380 285.000 1.000
84.400 287.000 1.000
84.420 283.000 1.000
84.440 247.000 1.000
84.460 284.000 1.000
84.480 296.000 1.000
84.500 290.000 1.000
84.520 271.000 1.000
84.540 288.000 1.000
84.560 274.000 1.000
84.580 259.000 1.000
84.600 254.000 1.000
84.620 266.000 1.000
84.640 282.000 1.000
84.660 276.000 1.000
84.680 271.000 1.000
84.700 256.000 1.000
84.720 265.000 1.000
84.740 271.000 1.000
84.760 260.000 1.000
84.780 285.000 1.000
84.800 277.000 1.000
84.820 259.000 1.000
84.840 281.000 1.000
84.860 247.000 1.000
84.880 259.000 1.000
84.900 243.000 1.000
84.920 271.000 1.000
84.940 271.000 1.000
84.960 275.000 1.000
84.980 248.000 1.000
85.000 275.000 1.000
85.020 257.000 1.000
85.040 267.000 1.000
85.060 249.000 1.000
85.080 235.000 1.000
85.100 245.000 1.000
85.120 248.000 1.000
85.140 251.000 1.000
85.160 256.000 1.000
85.180 233.000 1.000
85.200 258.000 1.000
85.220 277.000 1.000
85.240 261.000 1.000
85.260 243.000 1.000
85.280 257.000 1.000
85.300 257.000 1.000
85.320 264.000 1.000
85.340 269.000 1.000
85.360 265.000 1.000
85.380 265.000 1.000
85.400 279.000 1.000
85.420 246.000 1.000
85.440 263.000 1.000
85.460 260.000 1.000
85.480 258.000 1.000
85.500 251.000 1.000
85.520 268.000 1.000
85.540 272.000 1.000
85.560 250.000 1.000
85.580 280.000 1.000
85.600 258.000 1.000
85.620 285.000 1.000
85.640 266.000 1.000
85.660 257.000 1.000
85.680 249.000 1.000
85.700 278.000 1.000
85.720 262.000 1.000
85.740 256.000 1.000
85.760 262.000 1.000
85.780 255.000 1.000
85.800 267.000 1.000
85.820 276.000 1.000
85.840 305.000 1.000
85.860 273.000 1.000
85.880 274.000 1.000
85.900 284.000 1.000
85.920 276.000 1.000
85.940 272.000 1.000
85.960 279.000 1.000
85.980 282.000 1.000
86.000 255.000 1.000
86.020 295.000 1.000
86.040 279.000 1.000
86.060 282.000 1.000
86.080 299.000 1.000
86.100 314.000 1.000
86.120 300.000 1.000
86.140 307.000 1.000
86.160 289.000 1.000
86.180 275.000 1.000
86.200 273.000 1.000
86.220 270.000 1.000
86.240 279.000 1.000
86.260 311.000 1.000
86.280 270.000 1.000
86.300 284.000 1.000
86.320 277.000 1.000
86.340 283.000 1.000
86.360 289.000 1.000
86.380 329.000 1.000
86.400 285.000 1.000
86.420 291.000 1.000
86.440 262.000 1.000
86.460 309.000 1.000
86.480 297.000 1.000
86.500 280.000 1.000
86.520 316.000 1.000
86.540 311.000 1.000
86.560 275.000 1.000
86.580 297.000 1.000
86.600 307.000 1.000
86.620 316.000 1.000
86.640 317.000 1.000
86.660 280.000 1.000
86.680 287.000 1.000
86.700 332.000 1.000
86.720 308.000 1.000
86.740 308.000 1.000
86.760 301.000 1.000
86.780 281.000 1.000
86.800 288.000 1.000
86.820 290.000 1.000
86.840 276.000 1.000
86.860 296.000 1.000
86.880 287.000 1.000
86.900 295.000 1.000
86.920 291.000 1.000
86.940 256.000 1.000
86.960 286.000 1.000
86.980 292.000 1.000
87.000 299.000 1.000
87.020 299.000 1.000
87.040 286.000 1.000
87.060 298.000 1.000
87.080 302.000 1.000
87.100 293.000 1.000
87.120 306.000 1.000
87.140 299.000 1.000
87.160 301.000 1.000
87.180 282.000 1.000
87.200 312.000 1.000
87.220 293.000 1.000
87.240 293.000 1.000
87.260 267.000 1.000
87.280 270.000 1.000
87.300 287.000 1.000
87.320 306.000 1.000
87.340 299.000 1.000
87.360 278.000 1.000
87.380 269.000 1.000
87.400 277.000 1.000
87.420 296.000 1.000
87.440 281.000 1.000
87.460 281.000 1.000
87.480 279.000 1.000
87.500 295.000 1.000
87.520 297.000 1.000
87.540 275.000 1.000
87.560 286.000 1.000
87.580 270.000 1.000
87.600 244.000 1.000
87.620 294.000 1.000
87.640 277.000 1.000
87.660 289.000 1.000
87.680 254.000 1.000
87.700 285.000 1.000
87.720 261.000 1.000
87.740 314.000 1.000
87.760 279.000 1.000
87.780 291.000 1.000
87.800 292.000 1.000
87.820 297.000 1.000
87.840 296.000 1.000
87.860 305.000 1.000
87.880 312.000 1.000
87.900 305.000 1.000
87.920 262.000 1.000
87.940 281.000 1.000
87.960 270.000 1.000
87.980 293.000 1.000
88.000 284.000 1.000
88.020 279.000 1.000
88.040 261.000 1.000
88.060 286.000 1.000
88.080 280.000 1.000
88.100 297.000 1.000
88.120 302.000 1.000
88.140 318.000 1.000
88.160 281.000 1.000
88.180 296.000 1.000
88.200 290.000 1.000
88.220 251.000 1.000
88.240 282.000 1.000
88.260 304.000 1.000
88.280 277.000 1.000
88.300 273.000 1.000
88.320 270.000 1.000
88.340 289.000 1.000
88.360 271.000 1.000
88.380 292.000 1.000
88.400 299.000 1.000
88.420 281.000 1.000
88.440 293.000 1.000
88.460 308.000 1.000
88.480 280.000 1.000
88.500 287.000 1.000
88.520 288.000 1.000
88.540 311.000 1.000
88.560 281.000 1.000
88.580 314.000 1.000
88.600 298.000 1.000
88.620 286.000 1.000
88.640 309.000 1.000
88.660 277.000 1.000
88.680 283.000 1.000
88.700 315.000 1.000
88.720 293.000 1.000
88.740 295.000 1.000
88.760 297.000 1.000
88.780 288.000 1.000
88.800 273.000 1.000
88.820 259.000 1.000
88.840 274.000 1.000
88.860 283.000 1.000
88.880 250.000 1.000
88.900 255.000 1.000
88.920 286.000 1.000
88.940 294.000 1.000
88.960 268.000 1.000
88.980 269.000 1.000
89.000 288.000 1.000
89.020 242.000 1.000
89.040 288.000 1.000
89.060 251.000 1.000
89.080 280.000 1.000
89.100 273.000 1.000
89.120 277.000 1.000
89.140 290.000 1.000
89.160 271.000 1.000
89.180 288.000 1.000
89.200 268.000 1.000
89.220 256.000 1.000
89.240 274.000 1.000
89.260 275.000 1.000
89.280 283.000 1.000
89.300 303.000 1.000
89.320 292.000 1.000
89.340 280.000 1.000
89.360 258.000 1.000
89.380 296.000 1.000
89.400 286.000 1.000
89.420 271.000 1.000
89.440 285.000 1.000
89.460 296.000 1.000
89.480 283.000 1.000
89.500 293.000 1.000
89.520 295.000 1.000
89.540 295.000 1.000
89.560 279.000 1.000
89.580 271.000 1.000
89.600 290.000 1.000
89.620 280.000 1.000
89.640 297.000 1.000
89.660 254.000 1.000
89.680 297.000 1.000
89.700 274.000 1.000
89.720 276.000 1.000
89.740 288.000 1.000
89.760 267.000 1.000
89.780 259.000 1.000
89.800 252.000 1.000
89.820 305.000 1.000
89.840 278.000 1.000
89.860 264.000 1.000
89.880 281.000 1.000
89.900 269.000 1.000
89.920 269.000 1.000
89.940 273.000 1.000
89.960 262.000 1.000
89.980 272.000 1.000
90.000 254.000 1.000
*RAS_INT_END
*RAS_DATA_END
