*RAS_DATA_START
*RAS_HEADER_START
*DISP_FMT_X "%.2f"
*DISP_FMT_Y "%.0f"
*DISP_FULLSCALE "76540.0000000000"
*DISP_LINE_COLOR "255.0000000000"
*DISP_LINE_STYLE "0.0000000000"
*DISP_LINE_WIDTH "0.2500000000"
*DISP_NOTE "Collected Data-336"
*DISP_OFFSET_Y "0.0000000000"
*DISP_PEAKSEARCH_UNIT_Y "cps"
*DISP_RANGE_BOTTOM "0.0000000000"
*DISP_RANGE_LEFT "3.0000000000"
*DISP_RANGE_LOGCUTOFF "0.0100000000"
*DISP_RANGE_RIGHT "90.0000000000"
*DISP_RANGE_TOP "76540.0000000000"
*DISP_SCALE_MODE_Y "0.0000000000"
*DISP_TAB_NAME "Theta/2-Theta"
*DISP_TITLE_Y "Intensity"
*DISP_UNIT_Y "cps"
*DISP_WINDOW_NAME "MSG_MACROENGINE"
*FILE_COMMENT " "
*FILE_MD5 ""
*FILE_MEMO " "
*FILE_OPERATOR "Administrator"
*FILE_SAMPLE " "
*FILE_TYPE "RAS_RAW"
*FILE_USERGROUP "System Manager"
*FILE_VERSION "1.0000000000"
*HW_ATTACHMENT_ID "ATT1031"
*HW_ATTACHMENT_NAME "6サンプルチェンジャ|ASC-6"
*HW_COUNTER_ID-0 "CUT0025"
*HW_COUNTER_ID-1 "CUT0020"
*HW_COUNTER_ID-2 "CUT0020"
*HW_COUNTER_ID-3 "CMC0021"
*HW_COUNTER_NAME-0 "D/teX Ultra|D/teX Ultra"
*HW_COUNTER_NAME-1 "None|None"
*HW_COUNTER_NAME-2 "None|None"
*HW_COUNTER_NAME-3 "検出器モノクロメータ|Detector monochromator"
*HW_COUNTER_SELECT_NAME "D/teX Ultra|D/teX Ultra"
*HW_GONIOMETER_ID "GON0070"
*HW_GONIOMETER_NAME "MiniFlex 300/600|MiniFlex 300/600"
*HW_GONIOMETER_RADIUS-0 "79.0"
*HW_GONIOMETER_RADIUS-1 "91.5"
*HW_GONIOMETER_RADIUS-2 "150.0"
*HW_GONIOMETER_RADIUS-3 "0"
*HW_GONIOMETER_RADIUS-4 "103.4"
*HW_GONIOMETER_RADIUS-5 "150.0"
*HW_GONIOMETER_RADIUS-6 "46.6"
*HW_GONIOMETER_RADIUS-7 "160.0"
*HW_I_OPT_ID-0 "ISL0021"
*HW_I_OPT_ID-1 "ISO0021"
*HW_I_OPT_NAME-0 "発散スリット|Divergence slit"
*HW_I_OPT_NAME-1 "入射平行スリット|Incident parallel slit"
*HW_R_ATTENUATER_AUTOMODE "0"
*HW_R_OPT_ID-0 "RSS0021"
*HW_R_OPT_ID-1 "RSO0021"
*HW_R_OPT_ID-2 "RRS0021"
*HW_R_OPT_NAME-0 "散乱スリット|Scattering slit"
*HW_R_OPT_NAME-1 "受光平行スリット|Receiving soller slit"
*HW_R_OPT_NAME-2 "受光スリット|Receiving slit"
*HW_SAMPLE_HOLDER_ID "SMP0000"
*HW_SAMPLE_HOLDER_NAME "無し|None"
*HW_XG_CURRENT_MAX "15"
*HW_XG_CURRENT_MIN "2"
*HW_XG_CURRENT_RESOLUTION "1"
*HW_XG_CURRENT_UNIT "mA"
*HW_XG_FOCUS "1mm x 10mm"
*HW_XG_FOCUS_TYPE "Normal"
*HW_XG_ID ""
*HW_XG_NAME "300W/600W 封入管-B|300W/600W Sealed tube-B"
*HW_XG_TARGET_ATOMIC_NUMBER "29.0000000000"
*HW_XG_TARGET_NAME "Cu"
*HW_XG_TYPE "Hermetic"
*HW_XG_VOLTAGE_MAX "40"
*HW_XG_VOLTAGE_MIN "20"
*HW_XG_VOLTAGE_RESOLUTION "1"
*HW_XG_VOLTAGE_UNIT "kV"
*HW_XG_WATT_MAX "0.600"
*HW_XG_WATT_UNIT "kW"
*HW_XG_WAVE_LENGTH_ALPHA1 "1.540593"
*HW_XG_WAVE_LENGTH_ALPHA2 "1.544414"
*HW_XG_WAVE_LENGTH_BETA "1.392250"
*MEAS_COND_AXIS_NAME-0 "Theta/2-Theta"
*MEAS_COND_AXIS_NAME-1 "Spin"
*MEAS_COND_AXIS_NAME-2 "Change"
*MEAS_COND_AXIS_NAME-3 "Soller(inc.)"
*MEAS_COND_AXIS_NAME-4 "IHS"
*MEAS_COND_AXIS_NAME-5 "DS"
*MEAS_COND_AXIS_NAME-6 "SS"
*MEAS_COND_AXIS_NAME-7 "Soller(rec.)"
*MEAS_COND_AXIS_NAME-8 "RS"
*MEAS_COND_AXIS_NAME-9 "Filter"
*MEAS_COND_AXIS_NAME-10 "Monochromator"
*MEAS_COND_AXIS_NAME-11 "PHA"
*MEAS_COND_AXIS_NAME_INTERNAL-0 "TwoThetaTheta"
*MEAS_COND_AXIS_NAME_INTERNAL-1 "Spin"
*MEAS_COND_AXIS_NAME_INTERNAL-2 "Change"
*MEAS_COND_AXIS_NAME_INTERNAL-3 "IncidentSollerSlit"
*MEAS_COND_AXIS_NAME_INTERNAL-4 "IncidentAxdSlit"
*MEAS_COND_AXIS_NAME_INTERNAL-5 "IncidentSlitBox"
*MEAS_COND_AXIS_NAME_INTERNAL-6 "ReceivingSlitBox1"
*MEAS_COND_AXIS_NAME_INTERNAL-7 "ReceivingSollerSlit"
*MEAS_COND_AXIS_NAME_INTERNAL-8 "ReceivingSlitBox2"
*MEAS_COND_AXIS_NAME_INTERNAL-9 "Filter"
*MEAS_COND_AXIS_NAME_INTERNAL-10 "CounterMonochromator"
*MEAS_COND_AXIS_NAME_INTERNAL-11 "PHA"
*MEAS_COND_AXIS_NAME_MAGICNO-0 "268632064.0000000000"
*MEAS_COND_AXIS_NAME_MAGICNO-1 "16842752.0000000000"
*MEAS_COND_AXIS_NAME_MAGICNO-2 "16842752.0000000000"
*MEAS_COND_AXIS_NAME_MAGICNO-3 "20971521.0000000000"
*MEAS_COND_AXIS_NAME_MAGICNO-4 "22020097.0000000000"
*MEAS_COND_AXIS_NAME_MAGICNO-5 "22020097.0000000000"
*MEAS_COND_AXIS_NAME_MAGICNO-6 "23068673.0000000000"
*MEAS_COND_AXIS_NAME_MAGICNO-7 "20971521.0000000000"
*MEAS_COND_AXIS_NAME_MAGICNO-8 "23068673.0000000000"
*MEAS_COND_AXIS_NAME_MAGICNO-9 "20971521.0000000000"
*MEAS_COND_AXIS_NAME_MAGICNO-10 "20971521.0000000000"
*MEAS_COND_AXIS_NAME_MAGICNO-11 "0.0000000000"
*MEAS_COND_AXIS_OFFSET-0 "0.0000000000"
*MEAS_COND_AXIS_OFFSET-1 "-"
*MEAS_COND_AXIS_OFFSET-2 "-"
*MEAS_COND_AXIS_OFFSET-3 "-"
*MEAS_COND_AXIS_OFFSET-4 "-"
*MEAS_COND_AXIS_OFFSET-5 "-"
*MEAS_COND_AXIS_OFFSET-6 "-"
*MEAS_COND_AXIS_OFFSET-7 "-"
*MEAS_COND_AXIS_OFFSET-8 "-"
*MEAS_COND_AXIS_OFFSET-9 "-"
*MEAS_COND_AXIS_OFFSET-10 "-"
*MEAS_COND_AXIS_OFFSET-11 "-"
*MEAS_COND_AXIS_POSITION-0 "10.0000000000"
*MEAS_COND_AXIS_POSITION-1 "1.0000000000"
*MEAS_COND_AXIS_POSITION-2 "4.0000000000"
*MEAS_COND_AXIS_POSITION-3 "5.0deg"
*MEAS_COND_AXIS_POSITION-4 "10.0mm"
*MEAS_COND_AXIS_POSITION-5 "1.250deg"
*MEAS_COND_AXIS_POSITION-6 "13.0mm"
*MEAS_COND_AXIS_POSITION-7 "5.0deg"
*MEAS_COND_AXIS_POSITION-8 "13.0mm"
*MEAS_COND_AXIS_POSITION-9 "K-beta(x1)"
*MEAS_COND_AXIS_POSITION-10 "None"
*MEAS_COND_AXIS_POSITION-11 "37.0000000000"
*MEAS_COND_AXIS_UNIT-0 "deg"
*MEAS_COND_AXIS_UNIT-1 ""
*MEAS_COND_AXIS_UNIT-2 ""
*MEAS_COND_AXIS_UNIT-3 ""
*MEAS_COND_AXIS_UNIT-4 ""
*MEAS_COND_AXIS_UNIT-5 ""
*MEAS_COND_AXIS_UNIT-6 ""
*MEAS_COND_AXIS_UNIT-7 ""
*MEAS_COND_AXIS_UNIT-8 ""
*MEAS_COND_AXIS_UNIT-9 ""
*MEAS_COND_AXIS_UNIT-10 ""
*MEAS_COND_AXIS_UNIT-11 "div"
*MEAS_COND_COUNTER_CNTLOSS_CORR "0.0000000000"
*MEAS_COND_COUNTER_PHABASE "37.0000000000"
*MEAS_COND_COUNTER_PHAWINDOW "17.0000000000"
*MEAS_COND_COUNTER_PHA_UNIT "div"
*MEAS_COND_COUNTER_TAUDIFF "0.2500000000"
*MEAS_COND_COUNTER_TAUINT "0.7500000000"
*MEAS_COND_IRRADIATION_MODE "OFF"
*MEAS_COND_IRRADIATION_WIDTH ""
*MEAS_COND_OPT_ATTR " "
*MEAS_COND_OPT_NAME ""
*MEAS_COND_UNSYMMETRIC_MODE "OFF"
*MEAS_COND_XG_CURRENT "15.0000000000"
*MEAS_COND_XG_VOLTAGE "40.0000000000"
*MEAS_COND_XG_WAVE_TYPE "Ka"
*MEAS_DATA_COUNT "4351.0000000000"
*MEAS_SCAN_AXIS_X "Theta/2-Theta"
*MEAS_SCAN_AXIS_X_INTERNAL "TwoThetaTheta"
*MEAS_SCAN_END_TIME "11/07/25 14:01:27"
*MEAS_SCAN_MODE "CONTINUOUS"
*MEAS_SCAN_MONITOR "0"
*MEAS_SCAN_RESOLUTION_X "0.005"
*MEAS_SCAN_SPEED "10.000"
*MEAS_SCAN_SPEED_UNIT "deg/min"
*MEAS_SCAN_START "3.0000000000"
*MEAS_SCAN_START_TIME "11/07/25 13:51:58"
*MEAS_SCAN_STEP "0.0200000000"
*MEAS_SCAN_STOP "90.0000000000"
*MEAS_SCAN_UNIT_X "deg"
*MEAS_SCAN_UNIT_Y "counts"
*SLIT_SYSTEM "0"
*RAS_HEADER_END
*RAS_INT_START
3.000 279.000 1.000
3.020 253.000 1.000
3.040 237.000 1.000
3.060 236.000 1.000
3.080 242.000 1.000
3.100 264.000 1.000
3.120 253.000 1.000
3.140 257.000 1.000
3.160 253.000 1.000
3.180 239.000 1.000
3.200 229.000 1.000
3.220 227.000 1.000
3.240 239.000 1.000
3.260 215.000 1.000
3.280 229.000 1.000
3.300 210.000 1.000
3.320 236.000 1.000
3.340 209.000 1.000
3.360 206.000 1.000
3.380 237.000 1.000
3.400 221.000 1.000
3.420 228.000 1.000
3.440 235.000 1.000
3.460 216.000 1.000
3.480 239.000 1.000
3.500 220.000 1.000
3.520 215.000 1.000
3.540 224.000 1.000
3.560 228.000 1.000
3.580 209.000 1.000
3.600 228.000 1.000
3.620 216.000 1.000
3.640 199.000 1.000
3.660 218.000 1.000
3.680 229.000 1.000
3.700 170.000 1.000
3.720 205.000 1.000
3.740 201.000 1.000
3.760 202.000 1.000
3.780 200.000 1.000
3.800 187.000 1.000
3.820 196.000 1.000
3.840 226.000 1.000
3.860 198.000 1.000
3.880 202.000 1.000
3.900 197.000 1.000
3.920 220.000 1.000
3.940 207.000 1.000
3.960 191.000 1.000
3.980 183.000 1.000
4.000 192.000 1.000
4.020 204.000 1.000
4.040 180.000 1.000
4.060 181.000 1.000
4.080 184.000 1.000
4.100 180.000 1.000
4.120 169.000 1.000
4.140 162.000 1.000
4.160 187.000 1.000
4.180 172.000 1.000
4.200 177.000 1.000
4.220 204.000 1.000
4.240 182.000 1.000
4.260 170.000 1.000
4.280 193.000 1.000
4.300 206.000 1.000
4.320 191.000 1.000
4.340 178.000 1.000
4.360 155.000 1.000
4.380 186.000 1.000
4.400 194.000 1.000
4.420 183.000 1.000
4.440 177.000 1.000
4.460 151.000 1.000
4.480 181.000 1.000
4.500 178.000 1.000
4.520 169.000 1.000
4.540 167.000 1.000
4.560 181.000 1.000
4.580 188.000 1.000
4.600 192.000 1.000
4.620 174.000 1.000
4.640 169.000 1.000
4.660 164.000 1.000
4.680 186.000 1.000
4.700 172.000 1.000
4.720 185.000 1.000
4.740 151.000 1.000
4.760 171.000 1.000
4.780 178.000 1.000
4.800 193.000 1.000
4.820 165.000 1.000
4.840 166.000 1.000
4.860 178.000 1.000
4.880 193.000 1.000
4.900 198.000 1.000
4.920 178.000 1.000
4.940 171.000 1.000
4.960 194.000 1.000
4.980 195.000 1.000
5.000 184.000 1.000
5.020 189.000 1.000
5.040 176.000 1.000
5.060 205.000 1.000
5.080 167.000 1.000
5.100 172.000 1.000
5.120 175.000 1.000
5.140 196.000 1.000
5.160 201.000 1.000
5.180 197.000 1.000
5.200 171.000 1.000
5.220 179.000 1.000
5.240 182.000 1.000
5.260 167.000 1.000
5.280 170.000 1.000
5.300 177.000 1.000
5.320 180.000 1.000
5.340 172.000 1.000
5.360 186.000 1.000
5.380 166.000 1.000
5.400 198.000 1.000
5.420 177.000 1.000
5.440 198.000 1.000
5.460 178.000 1.000
5.480 161.000 1.000
5.500 178.000 1.000
5.520 186.000 1.000
5.540 169.000 1.000
5.560 188.000 1.000
5.580 190.000 1.000
5.600 177.000 1.000
5.620 169.000 1.000
5.640 192.000 1.000
5.660 179.000 1.000
5.680 181.000 1.000
5.700 193.000 1.000
5.720 182.000 1.000
5.740 199.000 1.000
5.760 193.000 1.000
5.780 174.000 1.000
5.800 192.000 1.000
5.820 205.000 1.000
5.840 185.000 1.000
5.860 212.000 1.000
5.880 197.000 1.000
5.900 206.000 1.000
5.920 190.000 1.000
5.940 193.000 1.000
5.960 205.000 1.000
5.980 191.000 1.000
6.000 191.000 1.000
6.020 184.000 1.000
6.040 175.000 1.000
6.060 202.000 1.000
6.080 192.000 1.000
6.100 182.000 1.000
6.120 177.000 1.000
6.140 224.000 1.000
6.160 191.000 1.000
6.180 208.000 1.000
6.200 201.000 1.000
6.220 207.000 1.000
6.240 191.000 1.000
6.260 208.000 1.000
6.280 193.000 1.000
6.300 195.000 1.000
6.320 199.000 1.000
6.340 192.000 1.000
6.360 175.000 1.000
6.380 196.000 1.000
6.400 219.000 1.000
6.420 200.000 1.000
6.440 205.000 1.000
6.460 188.000 1.000
6.480 181.000 1.000
6.500 201.000 1.000
6.520 210.000 1.000
6.540 200.000 1.000
6.560 214.000 1.000
6.580 204.000 1.000
6.600 194.000 1.000
6.620 194.000 1.000
6.640 195.000 1.000
6.660 194.000 1.000
6.680 194.000 1.000
6.700 187.000 1.000
6.720 205.000 1.000
6.740 200.000 1.000
6.760 214.000 1.000
6.780 216.000 1.000
6.800 199.000 1.000
6.820 198.000 1.000
6.840 228.000 1.000
6.860 240.000 1.000
6.880 234.000 1.000
6.900 196.000 1.000
6.920 214.000 1.000
6.940 209.000 1.000
6.960 210.000 1.000
6.980 204.000 1.000
7.000 202.000 1.000
7.020 186.000 1.000
7.040 196.000 1.000
7.060 227.000 1.000
7.080 227.000 1.000
7.100 213.000 1.000
7.120 218.000 1.000
7.140 210.000 1.000
7.160 228.000 1.000
7.180 213.000 1.000
7.200 224.000 1.000
7.220 240.000 1.000
7.240 206.000 1.000
7.260 199.000 1.000
7.280 212.000 1.000
7.300 237.000 1.000
7.320 244.000 1.000
7.340 231.000 1.000
7.360 252.000 1.000
7.380 236.000 1.000
7.400 226.000 1.000
7.420 232.000 1.000
7.440 223.000 1.000
7.460 219.000 1.000
7.480 241.000 1.000
7.500 232.000 1.000
7.520 220.000 1.000
7.540 224.000 1.000
7.560 234.000 1.000
7.580 227.000 1.000
7.600 230.000 1.000
7.620 217.000 1.000
7.640 247.000 1.000
7.660 252.000 1.000
7.680 216.000 1.000
7.700 253.000 1.000
7.720 256.000 1.000
7.740 239.000 1.000
7.760 227.000 1.000
7.780 247.000 1.000
7.800 254.000 1.000
7.820 230.000 1.000
7.840 242.000 1.000
7.860 243.000 1.000
7.880 211.000 1.000
7.900 232.000 1.000
7.920 244.000 1.000
7.940 244.000 1.000
7.960 251.000 1.000
7.980 224.000 1.000
8.000 235.000 1.000
8.020 234.000 1.000
8.040 222.000 1.000
8.060 246.000 1.000
8.080 245.000 1.000
8.100 242.000 1.000
8.120 274.000 1.000
8.140 253.000 1.000
8.160 247.000 1.000
8.180 268.000 1.000
8.200 263.000 1.000
8.220 247.000 1.000
8.240 258.000 1.000
8.260 251.000 1.000
8.280 266.000 1.000
8.300 274.000 1.000
8.320 269.000 1.000
8.340 246.000 1.000
8.360 258.000 1.000
8.380 269.000 1.000
8.400 254.000 1.000
8.420 254.000 1.000
8.440 266.000 1.000
8.460 279.000 1.000
8.480 258.000 1.000
8.500 248.000 1.000
8.520 262.000 1.000
8.540 273.000 1.000
8.560 239.000 1.000
8.580 246.000 1.000
8.600 266.000 1.000
8.620 242.000 1.000
8.640 258.000 1.000
8.660 263.000 1.000
8.680 266.000 1.000
8.700 242.000 1.000
8.720 260.000 1.000
8.740 271.000 1.000
8.760 269.000 1.000
8.780 274.000 1.000
8.800 289.000 1.000
8.820 270.000 1.000
8.840 253.000 1.000
8.860 255.000 1.000
8.880 278.000 1.000
8.900 262.000 1.000
8.920 304.000 1.000
8.940 297.000 1.000
8.960 288.000 1.000
8.980 290.000 1.000
9.000 284.000 1.000
9.020 265.000 1.000
9.040 280.000 1.000
9.060 287.000 1.000
9.080 291.000 1.000
9.100 257.000 1.000
9.120 274.000 1.000
9.140 291.000 1.000
9.160 277.000 1.000
9.180 280.000 1.000
9.200 295.000 1.000
9.220 278.000 1.000
9.240 292.000 1.000
9.260 288.000 1.000
9.280 317.000 1.000
9.300 299.000 1.000
9.320 298.000 1.000
9.340 311.000 1.000
9.360 310.000 1.000
9.380 294.000 1.000
9.400 292.000 1.000
9.420 283.000 1.000
9.440 265.000 1.000
9.460 289.000 1.000
9.480 302.000 1.000
9.500 317.000 1.000
9.520 313.000 1.000
9.540 297.000 1.000
9.560 288.000 1.000
9.580 304.000 1.000
9.600 325.000 1.000
9.620 276.000 1.000
9.640 279.000 1.000
9.660 275.000 1.000
9.680 299.000 1.000
9.700 288.000 1.000
9.720 274.000 1.000
9.740 321.000 1.000
9.760 329.000 1.000
9.780 310.000 1.000
9.800 324.000 1.000
9.820 311.000 1.000
9.840 329.000 1.000
9.860 291.000 1.000
9.880 322.000 1.000
9.900 309.000 1.000
9.920 318.000 1.000
9.940 310.000 1.000
9.960 299.000 1.000
9.980 321.000 1.000
10.000 335.000 1.000
10.020 307.000 1.000
10.040 302.000 1.000
10.060 306.000 1.000
10.080 331.000 1.000
10.100 320.000 1.000
10.120 314.000 1.000
10.140 330.000 1.000
10.160 315.000 1.000
10.180 324.000 1.000
10.200 353.000 1.000
10.220 333.000 1.000
10.240 316.000 1.000
10.260 334.000 1.000
10.280 328.000 1.000
10.300 298.000 1.000
10.320 327.000 1.000
10.340 346.000 1.000
10.360 308.000 1.000
10.380 331.000 1.000
10.400 324.000 1.000
10.420 322.000 1.000
10.440 312.000 1.000
10.460 325.000 1.000
10.480 334.000 1.000
10.500 335.000 1.000
10.520 315.000 1.000
10.540 312.000 1.000
10.560 344.000 1.000
10.580 338.000 1.000
10.600 330.000 1.000
10.620 322.000 1.000
10.640 307.000 1.000
10.660 342.000 1.000
10.680 319.000 1.000
10.700 345.000 1.000
10.720 335.000 1.000
10.740 335.000 1.000
10.760 332.000 1.000
10.780 351.000 1.000
10.800 340.000 1.000
10.820 347.000 1.000
10.840 349.000 1.000
10.860 370.000 1.000
10.880 351.000 1.000
10.900 322.000 1.000
10.920 332.000 1.000
10.940 342.000 1.000
10.960 334.000 1.000
10.980 343.000 1.000
11.000 392.000 1.000
11.020 323.000 1.000
11.040 336.000 1.000
11.060 369.000 1.000
11.080 351.000 1.000
11.100 348.000 1.000
11.120 377.000 1.000
11.140 350.000 1.000
11.160 319.000 1.000
11.180 350.000 1.000
11.200 363.000 1.000
11.220 328.000 1.000
11.240 371.000 1.000
11.260 341.000 1.000
11.280 383.000 1.000
11.300 363.000 1.000
11.320 365.000 1.000
11.340 360.000 1.000
11.360 363.000 1.000
11.380 352.000 1.000
11.400 376.000 1.000
11.420 392.000 1.000
11.440 379.000 1.000
11.460 341.000 1.000
11.480 376.000 1.000
11.500 369.000 1.000
11.520 362.000 1.000
11.540 368.000 1.000
11.560 362.000 1.000
11.580 335.000 1.000
11.600 362.000 1.000
11.620 374.000 1.000
11.640 379.000 1.000
11.660 373.000 1.000
11.680 341.000 1.000
11.700 370.000 1.000
11.720 396.000 1.000
11.740 377.000 1.000
11.760 396.000 1.000
11.780 353.000 1.000
11.800 396.000 1.000
11.820 364.000 1.000
11.840 356.000 1.000
11.860 357.000 1.000
11.880 394.000 1.000
11.900 357.000 1.000
11.920 372.000 1.000
11.940 394.000 1.000
11.960 374.000 1.000
11.980 393.000 1.000
12.000 380.000 1.000
12.020 397.000 1.000
12.040 376.000 1.000
12.060 384.000 1.000
12.080 351.000 1.000
12.100 354.000 1.000
12.120 350.000 1.000
12.140 358.000 1.000
12.160 376.000 1.000
12.180 386.000 1.000
12.200 367.000 1.000
12.220 362.000 1.000
12.240 386.000 1.000
12.260 379.000 1.000
12.280 361.000 1.000
12.300 374.000 1.000
12.320 397.000 1.000
12.340 369.000 1.000
12.360 339.000 1.000
12.380 381.000 1.000
12.400 405.000 1.000
12.420 390.000 1.000
12.440 407.000 1.000
12.460 393.000 1.000
12.480 423.000 1.000
12.500 416.000 1.000
12.520 436.000 1.000
12.540 411.000 1.000
12.560 424.000 1.000
12.580 387.000 1.000
12.600 387.000 1.000
12.620 383.000 1.000
12.640 415.000 1.000
12.660 387.000 1.000
12.680 396.000 1.000
12.700 422.000 1.000
12.720 403.000 1.000
12.740 375.000 1.000
12.760 410.000 1.000
12.780 392.000 1.000
12.800 399.000 1.000
12.820 395.000 1.000
12.840 409.000 1.000
12.860 388.000 1.000
12.880 426.000 1.000
12.900 373.000 1.000
12.920 410.000 1.000
12.940 438.000 1.000
12.960 425.000 1.000
12.980 405.000 1.000
13.000 411.000 1.000
13.020 419.000 1.000
13.040 413.000 1.000
13.060 408.000 1.000
13.080 411.000 1.000
13.100 429.000 1.000
13.120 440.000 1.000
13.140 415.000 1.000
13.160 422.000 1.000
13.180 437.000 1.000
13.200 425.000 1.000
13.220 415.000 1.000
13.240 399.000 1.000
13.260 450.000 1.000
13.280 429.000 1.000
13.300 428.000 1.000
13.320 437.000 1.000
13.340 405.000 1.000
13.360 433.000 1.000
13.380 395.000 1.000
13.400 425.000 1.000
13.420 448.000 1.000
13.440 434.000 1.000
13.460 405.000 1.000
13.480 436.000 1.000
13.500 484.000 1.000
13.520 443.000 1.000
13.540 425.000 1.000
13.560 416.000 1.000
13.580 424.000 1.000
13.600 415.000 1.000
13.620 436.000 1.000
13.640 421.000 1.000
13.660 429.000 1.000
13.680 441.000 1.000
13.700 443.000 1.000
13.720 460.000 1.000
13.740 422.000 1.000
13.760 456.000 1.000
13.780 431.000 1.000
13.800 434.000 1.000
13.820 451.000 1.000
13.840 472.000 1.000
13.860 390.000 1.000
13.880 446.000 1.000
13.900 430.000 1.000
13.920 445.000 1.000
13.940 485.000 1.000
13.960 467.000 1.000
13.980 462.000 1.000
14.000 459.000 1.000
14.020 453.000 1.000
14.040 480.000 1.000
14.060 461.000 1.000
14.080 479.000 1.000
14.100 440.000 1.000
14.120 460.000 1.000
14.140 447.000 1.000
14.160 445.000 1.000
14.180 447.000 1.000
14.200 500.000 1.000
14.220 435.000 1.000
14.240 427.000 1.000
14.260 435.000 1.000
14.280 456.000 1.000
14.300 455.000 1.000
14.320 428.000 1.000
14.340 484.000 1.000
14.360 502.000 1.000
14.380 479.000 1.000
14.400 483.000 1.000
14.420 484.000 1.000
14.440 446.000 1.000
14.460 441.000 1.000
14.480 478.000 1.000
14.500 461.000 1.000
14.520 482.000 1.000
14.540 463.000 1.000
14.560 441.000 1.000
14.580 452.000 1.000
14.600 409.000 1.000
14.620 446.000 1.000
14.640 449.000 1.000
14.660 470.000 1.000
14.680 471.000 1.000
14.700 494.000 1.000
14.720 487.000 1.000
14.740 476.000 1.000
14.760 470.000 1.000
14.780 478.000 1.000
14.800 504.000 1.000
14.820 479.000 1.000
14.840 480.000 1.000
14.860 537.000 1.000
14.880 532.000 1.000
14.900 488.000 1.000
14.920 520.000 1.000
14.940 521.000 1.000
14.960 473.000 1.000
14.980 487.000 1.000
15.000 518.000 1.000
15.020 490.000 1.000
15.040 505.000 1.000
15.060 534.000 1.000
15.080 520.000 1.000
15.100 528.000 1.000
15.120 490.000 1.000
15.140 483.000 1.000
15.160 488.000 1.000
15.180 485.000 1.000
15.200 495.000 1.000
15.220 520.000 1.000
15.240 504.000 1.000
15.260 496.000 1.000
15.280 502.000 1.000
15.300 482.000 1.000
15.320 512.000 1.000
15.340 477.000 1.000
15.360 509.000 1.000
15.380 531.000 1.000
15.400 500.000 1.000
15.420 497.000 1.000
15.440 511.000 1.000
15.460 495.000 1.000
15.480 510.000 1.000
15.500 536.000 1.000
15.520 555.000 1.000
15.540 569.000 1.000
15.560 554.000 1.000
15.580 586.000 1.000
15.600 575.000 1.000
15.620 654.000 1.000
15.640 678.000 1.000
15.660 701.000 1.000
15.680 780.000 1.000
15.700 774.000 1.000
15.720 761.000 1.000
15.740 737.000 1.000
15.760 701.000 1.000
15.780 678.000 1.000
15.800 604.000 1.000
15.820 545.000 1.000
15.840 547.000 1.000
15.860 519.000 1.000
15.880 557.000 1.000
15.900 527.000 1.000
15.920 544.000 1.000
15.940 505.000 1.000
15.960 535.000 1.000
15.980 532.000 1.000
16.000 520.000 1.000
16.020 550.000 1.000
16.040 548.000 1.000
16.060 562.000 1.000
16.080 551.000 1.000
16.100 560.000 1.000
16.120 518.000 1.000
16.140 530.000 1.000
16.160 541.000 1.000
16.180 524.000 1.000
16.200 498.000 1.000
16.220 486.000 1.000
16.240 515.000 1.000
16.260 492.000 1.000
16.280 510.000 1.000
16.300 495.000 1.000
16.320 490.000 1.000
16.340 489.000 1.000
16.360 474.000 1.000
16.380 490.000 1.000
16.400 460.000 1.000
16.420 486.000 1.000
16.440 501.000 1.000
16.460 483.000 1.000
16.480 516.000 1.000
16.500 473.000 1.000
16.520 471.000 1.000
16.540 472.000 1.000
16.560 501.000 1.000
16.580 493.000 1.000
16.600 490.000 1.000
16.620 474.000 1.000
16.640 477.000 1.000
16.660 495.000 1.000
16.680 519.000 1.000
16.700 485.000 1.000
16.720 505.000 1.000
16.740 531.000 1.000
16.760 541.000 1.000
16.780 551.000 1.000
16.800 543.000 1.000
16.820 576.000 1.000
16.840 558.000 1.000
16.860 604.000 1.000
16.880 648.000 1.000
16.900 637.000 1.000
16.920 707.000 1.000
16.940 740.000 1.000
16.960 748.000 1.000
16.980 717.000 1.000
17.000 659.000 1.000
17.020 664.000 1.000
17.040 625.000 1.000
17.060 580.000 1.000
17.080 530.000 1.000
17.100 517.000 1.000
17.120 508.000 1.000
17.140 499.000 1.000
17.160 497.000 1.000
17.180 483.000 1.000
17.200 473.000 1.000
17.220 479.000 1.000
17.240 462.000 1.000
17.260 483.000 1.000
17.280 482.000 1.000
17.300 508.000 1.000
17.320 489.000 1.000
17.340 476.000 1.000
17.360 471.000 1.000
17.380 502.000 1.000
17.400 458.000 1.000
17.420 465.000 1.000
17.440 473.000 1.000
17.460 487.000 1.000
17.480 513.000 1.000
17.500 482.000 1.000
17.520 484.000 1.000
17.540 458.000 1.000
17.560 505.000 1.000
17.580 481.000 1.000
17.600 517.000 1.000
17.620 534.000 1.000
17.640 518.000 1.000
17.660 515.000 1.000
17.680 513.000 1.000
17.700 498.000 1.000
17.720 512.000 1.000
17.740 514.000 1.000
17.760 505.000 1.000
17.780 511.000 1.000
17.800 500.000 1.000
17.820 493.000 1.000
17.840 511.000 1.000
17.860 507.000 1.000
17.880 473.000 1.000
17.900 489.000 1.000
17.920 487.000 1.000
17.940 485.000 1.000
17.960 501.000 1.000
17.980 501.000 1.000
18.000 504.000 1.000
18.020 510.000 1.000
18.040 534.000 1.000
18.060 537.000 1.000
18.080 531.000 1.000
18.100 546.000 1.000
18.120 581.000 1.000
18.140 531.000 1.000
18.160 563.000 1.000
18.180 536.000 1.000
18.200 568.000 1.000
18.220 583.000 1.000
18.240 636.000 1.000
18.260 676.000 1.000
18.280 633.000 1.000
18.300 766.000 1.000
18.320 773.000 1.000
18.340 779.000 1.000
18.360 849.000 1.000
18.380 873.000 1.000
18.400 891.000 1.000
18.420 794.000 1.000
18.440 725.000 1.000
18.460 697.000 1.000
18.480 630.000 1.000
18.500 553.000 1.000
18.520 504.000 1.000
18.540 506.000 1.000
18.560 481.000 1.000
18.580 476.000 1.000
18.600 479.000 1.000
18.620 497.000 1.000
18.640 536.000 1.000
18.660 534.000 1.000
18.680 514.000 1.000
18.700 533.000 1.000
18.720 560.000 1.000
18.740 562.000 1.000
18.760 554.000 1.000
18.780 577.000 1.000
18.800 655.000 1.000
18.820 642.000 1.000
18.840 690.000 1.000
18.860 718.000 1.000
18.880 734.000 1.000
18.900 729.000 1.000
18.920 776.000 1.000
18.940 774.000 1.000
18.960 740.000 1.000
18.980 712.000 1.000
19.000 608.000 1.000
19.020 579.000 1.000
19.040 535.000 1.000
19.060 511.000 1.000
19.080 501.000 1.000
19.100 526.000 1.000
19.120 507.000 1.000
19.140 480.000 1.000
19.160 489.000 1.000
19.180 454.000 1.000
19.200 497.000 1.000
19.220 480.000 1.000
19.240 462.000 1.000
19.260 484.000 1.000
19.280 488.000 1.000
19.300 503.000 1.000
19.320 491.000 1.000
19.340 489.000 1.000
19.360 505.000 1.000
19.380 489.000 1.000
19.400 481.000 1.000
19.420 489.000 1.000
19.440 531.000 1.000
19.460 487.000 1.000
19.480 488.000 1.000
19.500 495.000 1.000
19.520 533.000 1.000
19.540 489.000 1.000
19.560 467.000 1.000
19.580 483.000 1.000
19.600 457.000 1.000
19.620 462.000 1.000
19.640 502.000 1.000
19.660 472.000 1.000
19.680 508.000 1.000
19.700 472.000 1.000
19.720 482.000 1.000
19.740 435.000 1.000
19.760 511.000 1.000
19.780 479.000 1.000
19.800 481.000 1.000
19.820 460.000 1.000
19.840 492.000 1.000
19.860 469.000 1.000
19.880 466.000 1.000
19.900 474.000 1.000
19.920 455.000 1.000
19.940 467.000 1.000
19.960 442.000 1.000
19.980 497.000 1.000
20.000 440.000 1.000
20.020 459.000 1.000
20.040 497.000 1.000
20.060 475.000 1.000
20.080 459.000 1.000
20.100 455.000 1.000
20.120 476.000 1.000
20.140 483.000 1.000
20.160 454.000 1.000
20.180 460.000 1.000
20.200 462.000 1.000
20.220 472.000 1.000
20.240 470.000 1.000
20.260 471.000 1.000
20.280 477.000 1.000
20.300 515.000 1.000
20.320 479.000 1.000
20.340 505.000 1.000
20.360 483.000 1.000
20.380 499.000 1.000
20.400 492.000 1.000
20.420 476.000 1.000
20.440 491.000 1.000
20.460 514.000 1.000
20.480 465.000 1.000
20.500 520.000 1.000
20.520 485.000 1.000
20.540 501.000 1.000
20.560 491.000 1.000
20.580 452.000 1.000
20.600 474.000 1.000
20.620 470.000 1.000
20.640 490.000 1.000
20.660 458.000 1.000
20.680 454.000 1.000
20.700 474.000 1.000
20.720 461.000 1.000
20.740 477.000 1.000
20.760 495.000 1.000
20.780 440.000 1.000
20.800 474.000 1.000
20.820 467.000 1.000
20.840 465.000 1.000
20.860 472.000 1.000
20.880 467.000 1.000
20.900 487.000 1.000
20.920 446.000 1.000
20.940 462.000 1.000
20.960 489.000 1.000
20.980 459.000 1.000
21.000 434.000 1.000
21.020 466.000 1.000
21.040 488.000 1.000
21.060 462.000 1.000
21.080 472.000 1.000
21.100 451.000 1.000
21.120 500.000 1.000
21.140 494.000 1.000
21.160 497.000 1.000
21.180 525.000 1.000
21.200 518.000 1.000
21.220 464.000 1.000
21.240 476.000 1.000
21.260 491.000 1.000
21.280 522.000 1.000
21.300 465.000 1.000
21.320 524.000 1.000
21.340 532.000 1.000
21.360 496.000 1.000
21.380 501.000 1.000
21.400 558.000 1.000
21.420 526.000 1.000
21.440 529.000 1.000
21.460 533.000 1.000
21.480 568.000 1.000
21.500 552.000 1.000
21.520 541.000 1.000
21.540 552.000 1.000
21.560 509.000 1.000
21.580 519.000 1.000
21.600 514.000 1.000
21.620 475.000 1.000
21.640 478.000 1.000
21.660 473.000 1.000
21.680 453.000 1.000
21.700 483.000 1.000
21.720 476.000 1.000
21.740 502.000 1.000
21.760 500.000 1.000
21.780 478.000 1.000
21.800 460.000 1.000
21.820 514.000 1.000
21.840 479.000 1.000
21.860 459.000 1.000
21.880 449.000 1.000
21.900 496.000 1.000
21.920 506.000 1.000
21.940 474.000 1.000
21.960 532.000 1.000
21.980 520.000 1.000
22.000 505.000 1.000
22.020 467.000 1.000
22.040 515.000 1.000
22.060 522.000 1.000
22.080 501.000 1.000
22.100 476.000 1.000
22.120 478.000 1.000
22.140 464.000 1.000
22.160 477.000 1.000
22.180 519.000 1.000
22.200 495.000 1.000
22.220 457.000 1.000
22.240 476.000 1.000
22.260 477.000 1.000
22.280 488.000 1.000
22.300 488.000 1.000
22.320 476.000 1.000
22.340 496.000 1.000
22.360 524.000 1.000
22.380 482.000 1.000
22.400 496.000 1.000
22.420 489.000 1.000
22.440 450.000 1.000
22.460 481.000 1.000
22.480 499.000 1.000
22.500 514.000 1.000
22.520 513.000 1.000
22.540 495.000 1.000
22.560 475.000 1.000
22.580 494.000 1.000
22.600 513.000 1.000
22.620 491.000 1.000
22.640 533.000 1.000
22.660 521.000 1.000
22.680 540.000 1.000
22.700 552.000 1.000
22.720 585.000 1.000
22.740 579.000 1.000
22.760 550.000 1.000
22.780 612.000 1.000
22.800 640.000 1.000
22.820 705.000 1.000
22.840 740.000 1.000
22.860 740.000 1.000
22.880 825.000 1.000
22.900 853.000 1.000
22.920 877.000 1.000
22.940 882.000 1.000
22.960 843.000 1.000
22.980 798.000 1.000
23.000 745.000 1.000
23.020 667.000 1.000
23.040 602.000 1.000
23.060 541.000 1.000
23.080 561.000 1.000
23.100 541.000 1.000
23.120 533.000 1.000
23.140 518.000 1.000
23.160 541.000 1.000
23.180 489.000 1.000
23.200 501.000 1.000
23.220 523.000 1.000
23.240 459.000 1.000
23.260 501.000 1.000
23.280 488.000 1.000
23.300 484.000 1.000
23.320 481.000 1.000
23.340 471.000 1.000
23.360 475.000 1.000
23.380 517.000 1.000
23.400 522.000 1.000
23.420 507.000 1.000
23.440 473.000 1.000
23.460 480.000 1.000
23.480 479.000 1.000
23.500 492.000 1.000
23.520 452.000 1.000
23.540 490.000 1.000
23.560 502.000 1.000
23.580 497.000 1.000
23.600 502.000 1.000
23.620 520.000 1.000
23.640 496.000 1.000
23.660 491.000 1.000
23.680 509.000 1.000
23.700 515.000 1.000
23.720 518.000 1.000
23.740 511.000 1.000
23.760 553.000 1.000
23.780 504.000 1.000
23.800 515.000 1.000
23.820 521.000 1.000
23.840 527.000 1.000
23.860 529.000 1.000
23.880 518.000 1.000
23.900 512.000 1.000
23.920 511.000 1.000
23.940 519.000 1.000
23.960 488.000 1.000
23.980 532.000 1.000
24.000 548.000 1.000
24.020 524.000 1.000
24.040 503.000 1.000
24.060 495.000 1.000
24.080 530.000 1.000
24.100 545.000 1.000
24.120 520.000 1.000
24.140 510.000 1.000
24.160 498.000 1.000
24.180 507.000 1.000
24.200 541.000 1.000
24.220 552.000 1.000
24.240 594.000 1.000
24.260 537.000 1.000
24.280 569.000 1.000
24.300 592.000 1.000
24.320 659.000 1.000
24.340 648.000 1.000
24.360 680.000 1.000
24.380 701.000 1.000
24.400 776.000 1.000
24.420 838.000 1.000
24.440 957.000 1.000
24.460 1087.000 1.000
24.480 1176.000 1.000
24.500 1422.000 1.000
24.520 1615.000 1.000
24.540 1812.000 1.000
24.560 2145.000 1.000
24.580 2485.000 1.000
24.600 2857.000 1.000
24.620 3050.000 1.000
24.640 2938.000 1.000
24.660 2632.000 1.000
24.680 2261.000 1.000
24.700 1843.000 1.000
24.720 1442.000 1.000
24.740 1101.000 1.000
24.760 880.000 1.000
24.780 751.000 1.000
24.800 686.000 1.000
24.820 632.000 1.000
24.840 591.000 1.000
24.860 597.000 1.000
24.880 587.000 1.000
24.900 571.000 1.000
24.920 605.000 1.000
24.940 605.000 1.000
24.960 565.000 1.000
24.980 566.000 1.000
25.000 547.000 1.000
25.020 580.000 1.000
25.040 594.000 1.000
25.060 590.000 1.000
25.080 571.000 1.000
25.100 581.000 1.000
25.120 636.000 1.000
25.140 648.000 1.000
25.160 664.000 1.000
25.180 666.000 1.000
25.200 666.000 1.000
25.220 681.000 1.000
25.240 640.000 1.000
25.260 641.000 1.000
25.280 735.000 1.000
25.300 683.000 1.000
25.320 769.000 1.000
25.340 773.000 1.000
25.360 856.000 1.000
25.380 874.000 1.000
25.400 923.000 1.000
25.420 898.000 1.000
25.440 849.000 1.000
25.460 776.000 1.000
25.480 729.000 1.000
25.500 652.000 1.000
25.520 639.000 1.000
25.540 574.000 1.000
25.560 564.000 1.000
25.580 584.000 1.000
25.600 569.000 1.000
25.620 563.000 1.000
25.640 560.000 1.000
25.660 565.000 1.000
25.680 520.000 1.000
25.700 548.000 1.000
25.720 552.000 1.000
25.740 530.000 1.000
25.760 509.000 1.000
25.780 495.000 1.000
25.800 528.000 1.000
25.820 563.000 1.000
25.840 558.000 1.000
25.860 524.000 1.000
25.880 570.000 1.000
25.900 557.000 1.000
25.920 528.000 1.000
25.940 522.000 1.000
25.960 528.000 1.000
25.980 543.000 1.000
26.000 567.000 1.000
26.020 581.000 1.000
26.040 580.000 1.000
26.060 567.000 1.000
26.080 567.000 1.000
26.100 598.000 1.000
26.120 583.000 1.000
26.140 581.000 1.000
26.160 593.000 1.000
26.180 566.000 1.000
26.200 577.000 1.000
26.220 613.000 1.000
26.240 623.000 1.000
26.260 609.000 1.000
26.280 602.000 1.000
26.300 562.000 1.000
26.320 553.000 1.000
26.340 552.000 1.000
26.360 560.000 1.000
26.380 547.000 1.000
26.400 558.000 1.000
26.420 536.000 1.000
26.440 529.000 1.000
26.460 554.000 1.000
26.480 561.000 1.000
26.500 566.000 1.000
26.520 550.000 1.000
26.540 540.000 1.000
26.560 521.000 1.000
26.580 567.000 1.000
26.600 543.000 1.000
26.620 545.000 1.000
26.640 557.000 1.000
26.660 591.000 1.000
26.680 563.000 1.000
26.700 615.000 1.000
26.720 574.000 1.000
26.740 679.000 1.000
26.760 647.000 1.000
26.780 684.000 1.000
26.800 743.000 1.000
26.820 723.000 1.000
26.840 686.000 1.000
26.860 704.000 1.000
26.880 720.000 1.000
26.900 692.000 1.000
26.920 677.000 1.000
26.940 655.000 1.000
26.960 621.000 1.000
26.980 630.000 1.000
27.000 584.000 1.000
27.020 599.000 1.000
27.040 565.000 1.000
27.060 573.000 1.000
27.080 614.000 1.000
27.100 607.000 1.000
27.120 564.000 1.000
27.140 615.000 1.000
27.160 672.000 1.000
27.180 643.000 1.000
27.200 682.000 1.000
27.220 706.000 1.000
27.240 773.000 1.000
27.260 795.000 1.000
27.280 885.000 1.000
27.300 985.000 1.000
27.320 994.000 1.000
27.340 1038.000 1.000
27.360 1111.000 1.000
27.380 1208.000 1.000
27.400 1251.000 1.000
27.420 1257.000 1.000
27.440 1280.000 1.000
27.460 1255.000 1.000
27.480 1145.000 1.000
27.500 1155.000 1.000
27.520 1058.000 1.000
27.540 991.000 1.000
27.560 914.000 1.000
27.580 872.000 1.000
27.600 866.000 1.000
27.620 838.000 1.000
27.640 892.000 1.000
27.660 849.000 1.000
27.680 842.000 1.000
27.700 795.000 1.000
27.720 793.000 1.000
27.740 762.000 1.000
27.760 682.000 1.000
27.780 660.000 1.000
27.800 667.000 1.000
27.820 656.000 1.000
27.840 664.000 1.000
27.860 630.000 1.000
27.880 640.000 1.000
27.900 681.000 1.000
27.920 731.000 1.000
27.940 761.000 1.000
27.960 821.000 1.000
27.980 931.000 1.000
28.000 975.000 1.000
28.020 1069.000 1.000
28.040 1184.000 1.000
28.060 1302.000 1.000
28.080 1451.000 1.000
28.100 1611.000 1.000
28.120 1587.000 1.000
28.140 1454.000 1.000
28.160 1415.000 1.000
28.180 1268.000 1.000
28.200 1153.000 1.000
28.220 1047.000 1.000
28.240 963.000 1.000
28.260 880.000 1.000
28.280 933.000 1.000
28.300 866.000 1.000
28.320 893.000 1.000
28.340 933.000 1.000
28.360 860.000 1.000
28.380 882.000 1.000
28.400 885.000 1.000
28.420 830.000 1.000
28.440 806.000 1.000
28.460 810.000 1.000
28.480 765.000 1.000
28.500 794.000 1.000
28.520 800.000 1.000
28.540 784.000 1.000
28.560 804.000 1.000
28.580 809.000 1.000
28.600 829.000 1.000
28.620 882.000 1.000
28.640 857.000 1.000
28.660 890.000 1.000
28.680 909.000 1.000
28.700 969.000 1.000
28.720 1002.000 1.000
28.740 1033.000 1.000
28.760 1053.000 1.000
28.780 1165.000 1.000
28.800 1275.000 1.000
28.820 1311.000 1.000
28.840 1331.000 1.000
28.860 1481.000 1.000
28.880 1561.000 1.000
28.900 1483.000 1.000
28.920 1441.000 1.000
28.940 1302.000 1.000
28.960 1189.000 1.000
28.980 1058.000 1.000
29.000 1048.000 1.000
29.020 969.000 1.000
29.040 943.000 1.000
29.060 970.000 1.000
29.080 1045.000 1.000
29.100 1105.000 1.000
29.120 1225.000 1.000
29.140 1349.000 1.000
29.160 1380.000 1.000
29.180 1363.000 1.000
29.200 1400.000 1.000
29.220 1413.000 1.000
29.240 1310.000 1.000
29.260 1238.000 1.000
29.280 1224.000 1.000
29.300 1146.000 1.000
29.320 1147.000 1.000
29.340 1176.000 1.000
29.360 1233.000 1.000
29.380 1323.000 1.000
29.400 1380.000 1.000
29.420 1490.000 1.000
29.440 1665.000 1.000
29.460 1937.000 1.000
29.480 2171.000 1.000
29.500 2392.000 1.000
29.520 2560.000 1.000
29.540 2629.000 1.000
29.560 2534.000 1.000
29.580 2448.000 1.000
29.600 2354.000 1.000
29.620 2124.000 1.000
29.640 1876.000 1.000
29.660 1602.000 1.000
29.680 1475.000 1.000
29.700 1284.000 1.000
29.720 1229.000 1.000
29.740 1093.000 1.000
29.760 1069.000 1.000
29.780 1080.000 1.000
29.800 1063.000 1.000
29.820 1007.000 1.000
29.840 958.000 1.000
29.860 1003.000 1.000
29.880 1045.000 1.000
29.900 1114.000 1.000
29.920 1128.000 1.000
29.940 1232.000 1.000
29.960 1326.000 1.000
29.980 1368.000 1.000
30.000 1538.000 1.000
30.020 1713.000 1.000
30.040 2030.000 1.000
30.060 2328.000 1.000
30.080 2741.000 1.000
30.100 3342.000 1.000
30.120 3920.000 1.000
30.140 4875.000 1.000
30.160 5897.000 1.000
30.180 6750.000 1.000
30.200 7334.000 1.000
30.220 7654.000 1.000
30.240 7268.000 1.000
30.260 6622.000 1.000
30.280 6041.000 1.000
30.300 5476.000 1.000
30.320 5132.000 1.000
30.340 4574.000 1.000
30.360 4282.000 1.000
30.380 3839.000 1.000
30.400 3595.000 1.000
30.420 3326.000 1.000
30.440 3161.000 1.000
30.460 2940.000 1.000
30.480 2843.000 1.000
30.500 2794.000 1.000
30.520 2696.000 1.000
30.540 2659.000 1.000
30.560 2611.000 1.000
30.580 2659.000 1.000
30.600 2627.000 1.000
30.620 2590.000 1.000
30.640 2424.000 1.000
30.660 2300.000 1.000
30.680 2130.000 1.000
30.700 1963.000 1.000
30.720 1718.000 1.000
30.740 1525.000 1.000
30.760 1463.000 1.000
30.780 1365.000 1.000
30.800 1298.000 1.000
30.820 1329.000 1.000
30.840 1434.000 1.000
30.860 1561.000 1.000
30.880 1833.000 1.000
30.900 2184.000 1.000
30.920 2384.000 1.000
30.940 2897.000 1.000
30.960 3296.000 1.000
30.980 3754.000 1.000
31.000 3991.000 1.000
31.020 3981.000 1.000
31.040 3638.000 1.000
31.060 3108.000 1.000
31.080 2663.000 1.000
31.100 2279.000 1.000
31.120 1930.000 1.000
31.140 1399.000 1.000
31.160 1123.000 1.000
31.180 887.000 1.000
31.200 851.000 1.000
31.220 812.000 1.000
31.240 786.000 1.000
31.260 695.000 1.000
31.280 727.000 1.000
31.300 766.000 1.000
31.320 743.000 1.000
31.340 709.000 1.000
31.360 790.000 1.000
31.380 800.000 1.000
31.400 824.000 1.000
31.420 903.000 1.000
31.440 965.000 1.000
31.460 892.000 1.000
31.480 883.000 1.000
31.500 841.000 1.000
31.520 841.000 1.000
31.540 870.000 1.000
31.560 871.000 1.000
31.580 788.000 1.000
31.600 840.000 1.000
31.620 815.000 1.000
31.640 810.000 1.000
31.660 855.000 1.000
31.680 878.000 1.000
31.700 824.000 1.000
31.720 846.000 1.000
31.740 759.000 1.000
31.760 764.000 1.000
31.780 688.000 1.000
31.800 657.000 1.000
31.820 651.000 1.000
31.840 631.000 1.000
31.860 607.000 1.000
31.880 617.000 1.000
31.900 661.000 1.000
31.920 674.000 1.000
31.940 681.000 1.000
31.960 786.000 1.000
31.980 777.000 1.000
32.000 812.000 1.000
32.020 907.000 1.000
32.040 966.000 1.000
32.060 1113.000 1.000
32.080 1078.000 1.000
32.100 1051.000 1.000
32.120 1049.000 1.000
32.140 1038.000 1.000
32.160 1026.000 1.000
32.180 1058.000 1.000
32.200 1052.000 1.000
32.220 1134.000 1.000
32.240 1225.000 1.000
32.260 1254.000 1.000
32.280 1327.000 1.000
32.300 1378.000 1.000
32.320 1471.000 1.000
32.340 1580.000 1.000
32.360 1775.000 1.000
32.380 1913.000 1.000
32.400 2137.000 1.000
32.420 2316.000 1.000
32.440 2502.000 1.000
32.460 2486.000 1.000
32.480 2349.000 1.000
32.500 2171.000 1.000
32.520 2080.000 1.000
32.540 1792.000 1.000
32.560 1551.000 1.000
32.580 1319.000 1.000
32.600 1135.000 1.000
32.620 1058.000 1.000
32.640 952.000 1.000
32.660 875.000 1.000
32.680 869.000 1.000
32.700 802.000 1.000
32.720 839.000 1.000
32.740 816.000 1.000
32.760 805.000 1.000
32.780 783.000 1.000
32.800 746.000 1.000
32.820 735.000 1.000
32.840 674.000 1.000
32.860 633.000 1.000
32.880 624.000 1.000
32.900 559.000 1.000
32.920 553.000 1.000
32.940 540.000 1.000
32.960 550.000 1.000
32.980 493.000 1.000
33.000 530.000 1.000
33.020 508.000 1.000
33.040 482.000 1.000
33.060 466.000 1.000
33.080 532.000 1.000
33.100 516.000 1.000
33.120 535.000 1.000
33.140 568.000 1.000
33.160 521.000 1.000
33.180 543.000 1.000
33.200 569.000 1.000
33.220 573.000 1.000
33.240 577.000 1.000
33.260 625.000 1.000
33.280 586.000 1.000
33.300 572.000 1.000
33.320 546.000 1.000
33.340 536.000 1.000
33.360 515.000 1.000
33.380 504.000 1.000
33.400 503.000 1.000
33.420 462.000 1.000
33.440 476.000 1.000
33.460 482.000 1.000
33.480 486.000 1.000
33.500 480.000 1.000
33.520 452.000 1.000
33.540 442.000 1.000
33.560 490.000 1.000
33.580 510.000 1.000
33.600 501.000 1.000
33.620 515.000 1.000
33.640 491.000 1.000
33.660 485.000 1.000
33.680 467.000 1.000
33.700 492.000 1.000
33.720 451.000 1.000
33.740 491.000 1.000
33.760 442.000 1.000
33.780 478.000 1.000
33.800 533.000 1.000
33.820 489.000 1.000
33.840 505.000 1.000
33.860 530.000 1.000
33.880 538.000 1.000
33.900 579.000 1.000
33.920 555.000 1.000
33.940 634.000 1.000
33.960 638.000 1.000
33.980 600.000 1.000
34.000 602.000 1.000
34.020 625.000 1.000
34.040 626.000 1.000
34.060 580.000 1.000
34.080 586.000 1.000
34.100 611.000 1.000
34.120 583.000 1.000
34.140 591.000 1.000
34.160 570.000 1.000
34.180 591.000 1.000
34.200 592.000 1.000
34.220 616.000 1.000
34.240 657.000 1.000
34.260 689.000 1.000
34.280 674.000 1.000
34.300 705.000 1.000
34.320 708.000 1.000
34.340 720.000 1.000
34.360 785.000 1.000
34.380 738.000 1.000
34.400 762.000 1.000
34.420 737.000 1.000
34.440 698.000 1.000
34.460 694.000 1.000
34.480 660.000 1.000
34.500 610.000 1.000
34.520 599.000 1.000
34.540 522.000 1.000
34.560 528.000 1.000
34.580 516.000 1.000
34.600 511.000 1.000
34.620 494.000 1.000
34.640 470.000 1.000
34.660 457.000 1.000
34.680 482.000 1.000
34.700 497.000 1.000
34.720 470.000 1.000
34.740 482.000 1.000
34.760 476.000 1.000
34.780 438.000 1.000
34.800 452.000 1.000
34.820 456.000 1.000
34.840 451.000 1.000
34.860 443.000 1.000
34.880 473.000 1.000
34.900 454.000 1.000
34.920 458.000 1.000
34.940 437.000 1.000
34.960 445.000 1.000
34.980 438.000 1.000
35.000 436.000 1.000
35.020 468.000 1.000
35.040 499.000 1.000
35.060 491.000 1.000
35.080 507.000 1.000
35.100 505.000 1.000
35.120 548.000 1.000
35.140 545.000 1.000
35.160 554.000 1.000
35.180 561.000 1.000
35.200 584.000 1.000
35.220 571.000 1.000
35.240 597.000 1.000
35.260 551.000 1.000
35.280 596.000 1.000
35.300 615.000 1.000
35.320 613.000 1.000
35.340 628.000 1.000
35.360 669.000 1.000
35.380 644.000 1.000
35.400 652.000 1.000
35.420 652.000 1.000
35.440 627.000 1.000
35.460 578.000 1.000
35.480 589.000 1.000
35.500 620.000 1.000
35.520 620.000 1.000
35.540 630.000 1.000
35.560 637.000 1.000
35.580 639.000 1.000
35.600 663.000 1.000
35.620 739.000 1.000
35.640 842.000 1.000
35.660 906.000 1.000
35.680 1019.000 1.000
35.700 1049.000 1.000
35.720 1192.000 1.000
35.740 1209.000 1.000
35.760 1059.000 1.000
35.780 1028.000 1.000
35.800 1005.000 1.000
35.820 919.000 1.000
35.840 797.000 1.000
35.860 684.000 1.000
35.880 601.000 1.000
35.900 571.000 1.000
35.920 520.000 1.000
35.940 522.000 1.000
35.960 531.000 1.000
35.980 500.000 1.000
36.000 474.000 1.000
36.020 569.000 1.000
36.040 529.000 1.000
36.060 532.000 1.000
36.080 494.000 1.000
36.100 453.000 1.000
36.120 491.000 1.000
36.140 460.000 1.000
36.160 446.000 1.000
36.180 454.000 1.000
36.200 444.000 1.000
36.220 446.000 1.000
36.240 438.000 1.000
36.260 453.000 1.000
36.280 440.000 1.000
36.300 446.000 1.000
36.320 462.000 1.000
36.340 442.000 1.000
36.360 429.000 1.000
36.380 437.000 1.000
36.400 446.000 1.000
36.420 480.000 1.000
36.440 444.000 1.000
36.460 475.000 1.000
36.480 479.000 1.000
36.500 513.000 1.000
36.520 531.000 1.000
36.540 554.000 1.000
36.560 543.000 1.000
36.580 580.000 1.000
36.600 583.000 1.000
36.620 556.000 1.000
36.640 546.000 1.000
36.660 536.000 1.000
36.680 513.000 1.000
36.700 505.000 1.000
36.720 506.000 1.000
36.740 502.000 1.000
36.760 499.000 1.000
36.780 444.000 1.000
36.800 447.000 1.000
36.820 423.000 1.000
36.840 407.000 1.000
36.860 444.000 1.000
36.880 434.000 1.000
36.900 419.000 1.000
36.920 421.000 1.000
36.940 419.000 1.000
36.960 449.000 1.000
36.980 436.000 1.000
37.000 471.000 1.000
37.020 477.000 1.000
37.040 458.000 1.000
37.060 438.000 1.000
37.080 441.000 1.000
37.100 485.000 1.000
37.120 465.000 1.000
37.140 478.000 1.000
37.160 520.000 1.000
37.180 501.000 1.000
37.200 499.000 1.000
37.220 608.000 1.000
37.240 568.000 1.000
37.260 558.000 1.000
37.280 582.000 1.000
37.300 603.000 1.000
37.320 600.000 1.000
37.340 656.000 1.000
37.360 684.000 1.000
37.380 656.000 1.000
37.400 678.000 1.000
37.420 658.000 1.000
37.440 622.000 1.000
37.460 663.000 1.000
37.480 612.000 1.000
37.500 590.000 1.000
37.520 587.000 1.000
37.540 635.000 1.000
37.560 626.000 1.000
37.580 671.000 1.000
37.600 666.000 1.000
37.620 714.000 1.000
37.640 795.000 1.000
37.660 883.000 1.000
37.680 971.000 1.000
37.700 1109.000 1.000
37.720 1183.000 1.000
37.740 1355.000 1.000
37.760 1447.000 1.000
37.780 1460.000 1.000
37.800 1358.000 1.000
37.820 1218.000 1.000
37.840 1251.000 1.000
37.860 1037.000 1.000
37.880 972.000 1.000
37.900 907.000 1.000
37.920 778.000 1.000
37.940 722.000 1.000
37.960 675.000 1.000
37.980 686.000 1.000
38.000 666.000 1.000
38.020 623.000 1.000
38.040 573.000 1.000
38.060 590.000 1.000
38.080 553.000 1.000
38.100 564.000 1.000
38.120 559.000 1.000
38.140 533.000 1.000
38.160 528.000 1.000
38.180 608.000 1.000
38.200 602.000 1.000
38.220 623.000 1.000
38.240 609.000 1.000
38.260 648.000 1.000
38.280 691.000 1.000
38.300 725.000 1.000
38.320 705.000 1.000
38.340 748.000 1.000
38.360 705.000 1.000
38.380 739.000 1.000
38.400 698.000 1.000
38.420 680.000 1.000
38.440 627.000 1.000
38.460 658.000 1.000
38.480 582.000 1.000
38.500 626.000 1.000
38.520 611.000 1.000
38.540 657.000 1.000
38.560 703.000 1.000
38.580 713.000 1.000
38.600 768.000 1.000
38.620 858.000 1.000
38.640 881.000 1.000
38.660 864.000 1.000
38.680 814.000 1.000
38.700 783.000 1.000
38.720 748.000 1.000
38.740 777.000 1.000
38.760 739.000 1.000
38.780 630.000 1.000
38.800 627.000 1.000
38.820 640.000 1.000
38.840 596.000 1.000
38.860 564.000 1.000
38.880 564.000 1.000
38.900 503.000 1.000
38.920 452.000 1.000
38.940 493.000 1.000
38.960 487.000 1.000
38.980 494.000 1.000
39.000 442.000 1.000
39.020 439.000 1.000
39.040 493.000 1.000
39.060 469.000 1.000
39.080 506.000 1.000
39.100 533.000 1.000
39.120 548.000 1.000
39.140 604.000 1.000
39.160 602.000 1.000
39.180 663.000 1.000
39.200 680.000 1.000
39.220 793.000 1.000
39.240 847.000 1.000
39.260 922.000 1.000
39.280 1061.000 1.000
39.300 1146.000 1.000
39.320 1292.000 1.000
39.340 1383.000 1.000
39.360 1314.000 1.000
39.380 1346.000 1.000
39.400 1290.000 1.000
39.420 1337.000 1.000
39.440 1216.000 1.000
39.460 1119.000 1.000
39.480 934.000 1.000
39.500 829.000 1.000
39.520 808.000 1.000
39.540 732.000 1.000
39.560 641.000 1.000
39.580 590.000 1.000
39.600 574.000 1.000
39.620 519.000 1.000
39.640 538.000 1.000
39.660 557.000 1.000
39.680 565.000 1.000
39.700 530.000 1.000
39.720 566.000 1.000
39.740 612.000 1.000
39.760 573.000 1.000
39.780 602.000 1.000
39.800 610.000 1.000
39.820 643.000 1.000
39.840 663.000 1.000
39.860 646.000 1.000
39.880 613.000 1.000
39.900 641.000 1.000
39.920 623.000 1.000
39.940 550.000 1.000
39.960 570.000 1.000
39.980 520.000 1.000
40.000 557.000 1.000
40.020 569.000 1.000
40.040 501.000 1.000
40.060 494.000 1.000
40.080 471.000 1.000
40.100 468.000 1.000
40.120 478.000 1.000
40.140 463.000 1.000
40.160 464.000 1.000
40.180 498.000 1.000
40.200 490.000 1.000
40.220 489.000 1.000
40.240 509.000 1.000
40.260 529.000 1.000
40.280 504.000 1.000
40.300 487.000 1.000
40.320 488.000 1.000
40.340 478.000 1.000
40.360 449.000 1.000
40.380 481.000 1.000
40.400 511.000 1.000
40.420 473.000 1.000
40.440 499.000 1.000
40.460 480.000 1.000
40.480 496.000 1.000
40.500 510.000 1.000
40.520 524.000 1.000
40.540 556.000 1.000
40.560 533.000 1.000
40.580 520.000 1.000
40.600 530.000 1.000
40.620 551.000 1.000
40.640 554.000 1.000
40.660 520.000 1.000
40.680 520.000 1.000
40.700 551.000 1.000
40.720 569.000 1.000
40.740 568.000 1.000
40.760 572.000 1.000
40.780 514.000 1.000
40.800 548.000 1.000
40.820 549.000 1.000
40.840 550.000 1.000
40.860 486.000 1.000
40.880 484.000 1.000
40.900 488.000 1.000
40.920 461.000 1.000
40.940 482.000 1.000
40.960 499.000 1.000
40.980 456.000 1.000
41.000 508.000 1.000
41.020 501.000 1.000
41.040 539.000 1.000
41.060 535.000 1.000
41.080 559.000 1.000
41.100 549.000 1.000
41.120 591.000 1.000
41.140 650.000 1.000
41.160 690.000 1.000
41.180 802.000 1.000
41.200 851.000 1.000
41.220 973.000 1.000
41.240 1149.000 1.000
41.260 1255.000 1.000
41.280 1457.000 1.000
41.300 1376.000 1.000
41.320 1305.000 1.000
41.340 1184.000 1.000
41.360 1127.000 1.000
41.380 1013.000 1.000
41.400 1012.000 1.000
41.420 890.000 1.000
41.440 822.000 1.000
41.460 708.000 1.000
41.480 644.000 1.000
41.500 605.000 1.000
41.520 585.000 1.000
41.540 605.000 1.000
41.560 551.000 1.000
41.580 569.000 1.000
41.600 527.000 1.000
41.620 530.000 1.000
41.640 510.000 1.000
41.660 534.000 1.000
41.680 507.000 1.000
41.700 523.000 1.000
41.720 521.000 1.000
41.740 488.000 1.000
41.760 486.000 1.000
41.780 476.000 1.000
41.800 507.000 1.000
41.820 498.000 1.000
41.840 520.000 1.000
41.860 469.000 1.000
41.880 444.000 1.000
41.900 486.000 1.000
41.920 496.000 1.000
41.940 503.000 1.000
41.960 512.000 1.000
41.980 447.000 1.000
42.000 459.000 1.000
42.020 477.000 1.000
42.040 496.000 1.000
42.060 499.000 1.000
42.080 421.000 1.000
42.100 458.000 1.000
42.120 460.000 1.000
42.140 439.000 1.000
42.160 462.000 1.000
42.180 421.000 1.000
42.200 420.000 1.000
42.220 435.000 1.000
42.240 422.000 1.000
42.260 422.000 1.000
42.280 437.000 1.000
42.300 463.000 1.000
42.320 466.000 1.000
42.340 464.000 1.000
42.360 452.000 1.000
42.380 411.000 1.000
42.400 470.000 1.000
42.420 439.000 1.000
42.440 447.000 1.000
42.460 461.000 1.000
42.480 456.000 1.000
42.500 433.000 1.000
42.520 466.000 1.000
42.540 488.000 1.000
42.560 490.000 1.000
42.580 540.000 1.000
42.600 562.000 1.000
42.620 570.000 1.000
42.640 588.000 1.000
42.660 655.000 1.000
42.680 652.000 1.000
42.700 702.000 1.000
42.720 718.000 1.000
42.740 705.000 1.000
42.760 691.000 1.000
42.780 729.000 1.000
42.800 616.000 1.000
42.820 686.000 1.000
42.840 639.000 1.000
42.860 668.000 1.000
42.880 647.000 1.000
42.900 608.000 1.000
42.920 626.000 1.000
42.940 584.000 1.000
42.960 568.000 1.000
42.980 526.000 1.000
43.000 553.000 1.000
43.020 578.000 1.000
43.040 549.000 1.000
43.060 578.000 1.000
43.080 547.000 1.000
43.100 548.000 1.000
43.120 525.000 1.000
43.140 539.000 1.000
43.160 559.000 1.000
43.180 509.000 1.000
43.200 539.000 1.000
43.220 515.000 1.000
43.240 530.000 1.000
43.260 539.000 1.000
43.280 560.000 1.000
43.300 510.000 1.000
43.320 487.000 1.000
43.340 478.000 1.000
43.360 470.000 1.000
43.380 468.000 1.000
43.400 454.000 1.000
43.420 459.000 1.000
43.440 434.000 1.000
43.460 419.000 1.000
43.480 445.000 1.000
43.500 431.000 1.000
43.520 442.000 1.000
43.540 416.000 1.000
43.560 432.000 1.000
43.580 426.000 1.000
43.600 422.000 1.000
43.620 491.000 1.000
43.640 422.000 1.000
43.660 405.000 1.000
43.680 447.000 1.000
43.700 451.000 1.000
43.720 474.000 1.000
43.740 412.000 1.000
43.760 416.000 1.000
43.780 475.000 1.000
43.800 483.000 1.000
43.820 459.000 1.000
43.840 456.000 1.000
43.860 472.000 1.000
43.880 506.000 1.000
43.900 476.000 1.000
43.920 499.000 1.000
43.940 492.000 1.000
43.960 492.000 1.000
43.980 514.000 1.000
44.000 502.000 1.000
44.020 520.000 1.000
44.040 533.000 1.000
44.060 524.000 1.000
44.080 534.000 1.000
44.100 526.000 1.000
44.120 601.000 1.000
44.140 585.000 1.000
44.160 582.000 1.000
44.180 612.000 1.000
44.200 665.000 1.000
44.220 684.000 1.000
44.240 803.000 1.000
44.260 945.000 1.000
44.280 956.000 1.000
44.300 999.000 1.000
44.320 1095.000 1.000
44.340 1017.000 1.000
44.360 947.000 1.000
44.380 865.000 1.000
44.400 824.000 1.000
44.420 817.000 1.000
44.440 781.000 1.000
44.460 698.000 1.000
44.480 644.000 1.000
44.500 567.000 1.000
44.520 550.000 1.000
44.540 519.000 1.000
44.560 467.000 1.000
44.580 461.000 1.000
44.600 435.000 1.000
44.620 453.000 1.000
44.640 464.000 1.000
44.660 512.000 1.000
44.680 514.000 1.000
44.700 502.000 1.000
44.720 504.000 1.000
44.740 487.000 1.000
44.760 527.000 1.000
44.780 523.000 1.000
44.800 545.000 1.000
44.820 578.000 1.000
44.840 552.000 1.000
44.860 522.000 1.000
44.880 523.000 1.000
44.900 536.000 1.000
44.920 519.000 1.000
44.940 503.000 1.000
44.960 490.000 1.000
44.980 492.000 1.000
45.000 458.000 1.000
45.020 443.000 1.000
45.040 439.000 1.000
45.060 445.000 1.000
45.080 481.000 1.000
45.100 503.000 1.000
45.120 501.000 1.000
45.140 498.000 1.000
45.160 565.000 1.000
45.180 531.000 1.000
45.200 534.000 1.000
45.220 522.000 1.000
45.240 537.000 1.000
45.260 547.000 1.000
45.280 601.000 1.000
45.300 655.000 1.000
45.320 722.000 1.000
45.340 765.000 1.000
45.360 843.000 1.000
45.380 842.000 1.000
45.400 875.000 1.000
45.420 809.000 1.000
45.440 813.000 1.000
45.460 740.000 1.000
45.480 797.000 1.000
45.500 897.000 1.000
45.520 919.000 1.000
45.540 923.000 1.000
45.560 968.000 1.000
45.580 999.000 1.000
45.600 1067.000 1.000
45.620 1070.000 1.000
45.640 1026.000 1.000
45.660 927.000 1.000
45.680 866.000 1.000
45.700 886.000 1.000
45.720 813.000 1.000
45.740 842.000 1.000
45.760 816.000 1.000
45.780 717.000 1.000
45.800 702.000 1.000
45.820 634.000 1.000
45.840 596.000 1.000
45.860 608.000 1.000
45.880 651.000 1.000
45.900 594.000 1.000
45.920 630.000 1.000
45.940 621.000 1.000
45.960 566.000 1.000
45.980 577.000 1.000
46.000 583.000 1.000
46.020 560.000 1.000
46.040 592.000 1.000
46.060 582.000 1.000
46.080 555.000 1.000
46.100 611.000 1.000
46.120 594.000 1.000
46.140 643.000 1.000
46.160 648.000 1.000
46.180 700.000 1.000
46.200 752.000 1.000
46.220 790.000 1.000
46.240 799.000 1.000
46.260 784.000 1.000
46.280 789.000 1.000
46.300 732.000 1.000
46.320 657.000 1.000
46.340 681.000 1.000
46.360 645.000 1.000
46.380 670.000 1.000
46.400 618.000 1.000
46.420 601.000 1.000
46.440 556.000 1.000
46.460 519.000 1.000
46.480 516.000 1.000
46.500 532.000 1.000
46.520 504.000 1.000
46.540 480.000 1.000
46.560 504.000 1.000
46.580 567.000 1.000
46.600 559.000 1.000
46.620 584.000 1.000
46.640 646.000 1.000
46.660 696.000 1.000
46.680 756.000 1.000
46.700 854.000 1.000
46.720 942.000 1.000
46.740 1054.000 1.000
46.760 1243.000 1.000
46.780 1373.000 1.000
46.800 1451.000 1.000
46.820 1409.000 1.000
46.840 1237.000 1.000
46.860 1155.000 1.000
46.880 1100.000 1.000
46.900 1080.000 1.000
46.920 1029.000 1.000
46.940 990.000 1.000
46.960 906.000 1.000
46.980 763.000 1.000
47.000 665.000 1.000
47.020 605.000 1.000
47.040 551.000 1.000
47.060 564.000 1.000
47.080 527.000 1.000
47.100 535.000 1.000
47.120 508.000 1.000
47.140 510.000 1.000
47.160 522.000 1.000
47.180 492.000 1.000
47.200 491.000 1.000
47.220 498.000 1.000
47.240 468.000 1.000
47.260 504.000 1.000
47.280 502.000 1.000
47.300 513.000 1.000
47.320 500.000 1.000
47.340 518.000 1.000
47.360 476.000 1.000
47.380 479.000 1.000
47.400 515.000 1.000
47.420 507.000 1.000
47.440 567.000 1.000
47.460 526.000 1.000
47.480 549.000 1.000
47.500 541.000 1.000
47.520 555.000 1.000
47.540 592.000 1.000
47.560 641.000 1.000
47.580 637.000 1.000
47.600 568.000 1.000
47.620 593.000 1.000
47.640 614.000 1.000
47.660 582.000 1.000
47.680 604.000 1.000
47.700 580.000 1.000
47.720 616.000 1.000
47.740 636.000 1.000
47.760 621.000 1.000
47.780 703.000 1.000
47.800 698.000 1.000
47.820 741.000 1.000
47.840 744.000 1.000
47.860 755.000 1.000
47.880 781.000 1.000
47.900 725.000 1.000
47.920 684.000 1.000
47.940 694.000 1.000
47.960 649.000 1.000
47.980 678.000 1.000
48.000 703.000 1.000
48.020 680.000 1.000
48.040 657.000 1.000
48.060 691.000 1.000
48.080 711.000 1.000
48.100 755.000 1.000
48.120 832.000 1.000
48.140 926.000 1.000
48.160 958.000 1.000
48.180 932.000 1.000
48.200 949.000 1.000
48.220 883.000 1.000
48.240 820.000 1.000
48.260 808.000 1.000
48.280 804.000 1.000
48.300 777.000 1.000
48.320 718.000 1.000
48.340 675.000 1.000
48.360 634.000 1.000
48.380 611.000 1.000
48.400 537.000 1.000
48.420 557.000 1.000
48.440 489.000 1.000
48.460 523.000 1.000
48.480 514.000 1.000
48.500 505.000 1.000
48.520 469.000 1.000
48.540 471.000 1.000
48.560 445.000 1.000
48.580 499.000 1.000
48.600 479.000 1.000
48.620 480.000 1.000
48.640 474.000 1.000
48.660 480.000 1.000
48.680 517.000 1.000
48.700 511.000 1.000
48.720 526.000 1.000
48.740 557.000 1.000
48.760 545.000 1.000
48.780 596.000 1.000
48.800 614.000 1.000
48.820 614.000 1.000
48.840 570.000 1.000
48.860 575.000 1.000
48.880 607.000 1.000
48.900 579.000 1.000
48.920 586.000 1.000
48.940 571.000 1.000
48.960 569.000 1.000
48.980 560.000 1.000
49.000 578.000 1.000
49.020 536.000 1.000
49.040 583.000 1.000
49.060 574.000 1.000
49.080 615.000 1.000
49.100 649.000 1.000
49.120 681.000 1.000
49.140 681.000 1.000
49.160 710.000 1.000
49.180 638.000 1.000
49.200 624.000 1.000
49.220 613.000 1.000
49.240 634.000 1.000
49.260 619.000 1.000
49.280 637.000 1.000
49.300 639.000 1.000
49.320 588.000 1.000
49.340 600.000 1.000
49.360 550.000 1.000
49.380 552.000 1.000
49.400 513.000 1.000
49.420 517.000 1.000
49.440 537.000 1.000
49.460 522.000 1.000
49.480 497.000 1.000
49.500 516.000 1.000
49.520 529.000 1.000
49.540 485.000 1.000
49.560 551.000 1.000
49.580 539.000 1.000
49.600 549.000 1.000
49.620 504.000 1.000
49.640 498.000 1.000
49.660 518.000 1.000
49.680 463.000 1.000
49.700 452.000 1.000
49.720 472.000 1.000
49.740 437.000 1.000
49.760 475.000 1.000
49.780 474.000 1.000
49.800 440.000 1.000
49.820 434.000 1.000
49.840 443.000 1.000
49.860 453.000 1.000
49.880 415.000 1.000
49.900 430.000 1.000
49.920 445.000 1.000
49.940 418.000 1.000
49.960 427.000 1.000
49.980 446.000 1.000
50.000 467.000 1.000
50.020 431.000 1.000
50.040 454.000 1.000
50.060 448.000 1.000
50.080 443.000 1.000
50.100 478.000 1.000
50.120 463.000 1.000
50.140 428.000 1.000
50.160 451.000 1.000
50.180 433.000 1.000
50.200 455.000 1.000
50.220 415.000 1.000
50.240 419.000 1.000
50.260 426.000 1.000
50.280 439.000 1.000
50.300 459.000 1.000
50.320 472.000 1.000
50.340 490.000 1.000
50.360 475.000 1.000
50.380 467.000 1.000
50.400 475.000 1.000
50.420 482.000 1.000
50.440 443.000 1.000
50.460 504.000 1.000
50.480 485.000 1.000
50.500 479.000 1.000
50.520 461.000 1.000
50.540 462.000 1.000
50.560 458.000 1.000
50.580 417.000 1.000
50.600 456.000 1.000
50.620 433.000 1.000
50.640 448.000 1.000
50.660 431.000 1.000
50.680 445.000 1.000
50.700 429.000 1.000
50.720 405.000 1.000
50.740 424.000 1.000
50.760 426.000 1.000
50.780 426.000 1.000
50.800 443.000 1.000
50.820 438.000 1.000
50.840 410.000 1.000
50.860 438.000 1.000
50.880 418.000 1.000
50.900 416.000 1.000
50.920 446.000 1.000
50.940 443.000 1.000
50.960 411.000 1.000
50.980 433.000 1.000
51.000 441.000 1.000
51.020 434.000 1.000
51.040 472.000 1.000
51.060 439.000 1.000
51.080 452.000 1.000
51.100 452.000 1.000
51.120 509.000 1.000
51.140 562.000 1.000
51.160 561.000 1.000
51.180 622.000 1.000
51.200 691.000 1.000
51.220 741.000 1.000
51.240 737.000 1.000
51.260 729.000 1.000
51.280 720.000 1.000
51.300 634.000 1.000
51.320 595.000 1.000
51.340 620.000 1.000
51.360 591.000 1.000
51.380 591.000 1.000
51.400 543.000 1.000
51.420 543.000 1.000
51.440 475.000 1.000
51.460 496.000 1.000
51.480 447.000 1.000
51.500 388.000 1.000
51.520 434.000 1.000
51.540 460.000 1.000
51.560 444.000 1.000
51.580 420.000 1.000
51.600 395.000 1.000
51.620 425.000 1.000
51.640 442.000 1.000
51.660 420.000 1.000
51.680 420.000 1.000
51.700 423.000 1.000
51.720 424.000 1.000
51.740 417.000 1.000
51.760 430.000 1.000
51.780 465.000 1.000
51.800 443.000 1.000
51.820 446.000 1.000
51.840 477.000 1.000
51.860 522.000 1.000
51.880 499.000 1.000
51.900 545.000 1.000
51.920 546.000 1.000
51.940 567.000 1.000
51.960 613.000 1.000
51.980 639.000 1.000
52.000 615.000 1.000
52.020 587.000 1.000
52.040 625.000 1.000
52.060 573.000 1.000
52.080 596.000 1.000
52.100 624.000 1.000
52.120 619.000 1.000
52.140 605.000 1.000
52.160 604.000 1.000
52.180 559.000 1.000
52.200 549.000 1.000
52.220 529.000 1.000
52.240 536.000 1.000
52.260 516.000 1.000
52.280 484.000 1.000
52.300 528.000 1.000
52.320 493.000 1.000
52.340 489.000 1.000
52.360 441.000 1.000
52.380 439.000 1.000
52.400 485.000 1.000
52.420 471.000 1.000
52.440 464.000 1.000
52.460 471.000 1.000
52.480 475.000 1.000
52.500 481.000 1.000
52.520 467.000 1.000
52.540 515.000 1.000
52.560 521.000 1.000
52.580 461.000 1.000
52.600 447.000 1.000
52.620 473.000 1.000
52.640 511.000 1.000
52.660 461.000 1.000
52.680 482.000 1.000
52.700 505.000 1.000
52.720 503.000 1.000
52.740 524.000 1.000
52.760 505.000 1.000
52.780 480.000 1.000
52.800 497.000 1.000
52.820 522.000 1.000
52.840 477.000 1.000
52.860 479.000 1.000
52.880 517.000 1.000
52.900 513.000 1.000
52.920 512.000 1.000
52.940 528.000 1.000
52.960 509.000 1.000
52.980 537.000 1.000
53.000 561.000 1.000
53.020 560.000 1.000
53.040 560.000 1.000
53.060 572.000 1.000
53.080 568.000 1.000
53.100 536.000 1.000
53.120 548.000 1.000
53.140 503.000 1.000
53.160 507.000 1.000
53.180 541.000 1.000
53.200 532.000 1.000
53.220 535.000 1.000
53.240 510.000 1.000
53.260 478.000 1.000
53.280 497.000 1.000
53.300 490.000 1.000
53.320 464.000 1.000
53.340 488.000 1.000
53.360 479.000 1.000
53.380 456.000 1.000
53.400 514.000 1.000
53.420 465.000 1.000
53.440 473.000 1.000
53.460 476.000 1.000
53.480 460.000 1.000
53.500 460.000 1.000
53.520 448.000 1.000
53.540 463.000 1.000
53.560 444.000 1.000
53.580 457.000 1.000
53.600 483.000 1.000
53.620 512.000 1.000
53.640 506.000 1.000
53.660 543.000 1.000
53.680 548.000 1.000
53.700 573.000 1.000
53.720 603.000 1.000
53.740 687.000 1.000
53.760 800.000 1.000
53.780 890.000 1.000
53.800 984.000 1.000
53.820 1068.000 1.000
53.840 1137.000 1.000
53.860 1127.000 1.000
53.880 1140.000 1.000
53.900 1078.000 1.000
53.920 1062.000 1.000
53.940 949.000 1.000
53.960 877.000 1.000
53.980 861.000 1.000
54.000 890.000 1.000
54.020 837.000 1.000
54.040 711.000 1.000
54.060 699.000 1.000
54.080 618.000 1.000
54.100 546.000 1.000
54.120 532.000 1.000
54.140 487.000 1.000
54.160 496.000 1.000
54.180 500.000 1.000
54.200 442.000 1.000
54.220 467.000 1.000
54.240 446.000 1.000
54.260 505.000 1.000
54.280 446.000 1.000
54.300 471.000 1.000
54.320 470.000 1.000
54.340 450.000 1.000
54.360 463.000 1.000
54.380 495.000 1.000
54.400 515.000 1.000
54.420 516.000 1.000
54.440 535.000 1.000
54.460 572.000 1.000
54.480 594.000 1.000
54.500 588.000 1.000
54.520 630.000 1.000
54.540 617.000 1.000
54.560 598.000 1.000
54.580 625.000 1.000
54.600 625.000 1.000
54.620 660.000 1.000
54.640 632.000 1.000
54.660 664.000 1.000
54.680 665.000 1.000
54.700 684.000 1.000
54.720 643.000 1.000
54.740 658.000 1.000
54.760 694.000 1.000
54.780 730.000 1.000
54.800 709.000 1.000
54.820 700.000 1.000
54.840 698.000 1.000
54.860 739.000 1.000
54.880 720.000 1.000
54.900 744.000 1.000
54.920 772.000 1.000
54.940 820.000 1.000
54.960 871.000 1.000
54.980 948.000 1.000
55.000 991.000 1.000
55.020 1070.000 1.000
55.040 1123.000 1.000
55.060 1194.000 1.000
55.080 1151.000 1.000
55.100 1107.000 1.000
55.120 1031.000 1.000
55.140 1034.000 1.000
55.160 1039.000 1.000
55.180 1093.000 1.000
55.200 1099.000 1.000
55.220 1126.000 1.000
55.240 1110.000 1.000
55.260 1004.000 1.000
55.280 859.000 1.000
55.300 795.000 1.000
55.320 744.000 1.000
55.340 707.000 1.000
55.360 760.000 1.000
55.380 691.000 1.000
55.400 651.000 1.000
55.420 678.000 1.000
55.440 644.000 1.000
55.460 585.000 1.000
55.480 591.000 1.000
55.500 547.000 1.000
55.520 617.000 1.000
55.540 592.000 1.000
55.560 583.000 1.000
55.580 579.000 1.000
55.600 612.000 1.000
55.620 588.000 1.000
55.640 616.000 1.000
55.660 670.000 1.000
55.680 648.000 1.000
55.700 621.000 1.000
55.720 605.000 1.000
55.740 610.000 1.000
55.760 591.000 1.000
55.780 621.000 1.000
55.800 615.000 1.000
55.820 585.000 1.000
55.840 585.000 1.000
55.860 640.000 1.000
55.880 613.000 1.000
55.900 619.000 1.000
55.920 615.000 1.000
55.940 630.000 1.000
55.960 667.000 1.000
55.980 545.000 1.000
56.000 587.000 1.000
56.020 599.000 1.000
56.040 547.000 1.000
56.060 545.000 1.000
56.080 597.000 1.000
56.100 616.000 1.000
56.120 621.000 1.000
56.140 577.000 1.000
56.160 550.000 1.000
56.180 561.000 1.000
56.200 536.000 1.000
56.220 595.000 1.000
56.240 580.000 1.000
56.260 581.000 1.000
56.280 595.000 1.000
56.300 601.000 1.000
56.320 603.000 1.000
56.340 617.000 1.000
56.360 629.000 1.000
56.380 591.000 1.000
56.400 636.000 1.000
56.420 586.000 1.000
56.440 580.000 1.000
56.460 566.000 1.000
56.480 584.000 1.000
56.500 586.000 1.000
56.520 569.000 1.000
56.540 628.000 1.000
56.560 631.000 1.000
56.580 602.000 1.000
56.600 582.000 1.000
56.620 581.000 1.000
56.640 613.000 1.000
56.660 605.000 1.000
56.680 654.000 1.000
56.700 660.000 1.000
56.720 742.000 1.000
56.740 765.000 1.000
56.760 878.000 1.000
56.780 860.000 1.000
56.800 863.000 1.000
56.820 814.000 1.000
56.840 780.000 1.000
56.860 747.000 1.000
56.880 749.000 1.000
56.900 702.000 1.000
56.920 709.000 1.000
56.940 687.000 1.000
56.960 711.000 1.000
56.980 645.000 1.000
57.000 589.000 1.000
57.020 574.000 1.000
57.040 571.000 1.000
57.060 519.000 1.000
57.080 517.000 1.000
57.100 486.000 1.000
57.120 490.000 1.000
57.140 500.000 1.000
57.160 448.000 1.000
57.180 494.000 1.000
57.200 456.000 1.000
57.220 449.000 1.000
57.240 439.000 1.000
57.260 464.000 1.000
57.280 470.000 1.000
57.300 460.000 1.000
57.320 418.000 1.000
57.340 462.000 1.000
57.360 449.000 1.000
57.380 436.000 1.000
57.400 468.000 1.000
57.420 448.000 1.000
57.440 416.000 1.000
57.460 436.000 1.000
57.480 467.000 1.000
57.500 458.000 1.000
57.520 482.000 1.000
57.540 477.000 1.000
57.560 463.000 1.000
57.580 469.000 1.000
57.600 460.000 1.000
57.620 494.000 1.000
57.640 558.000 1.000
57.660 568.000 1.000
57.680 590.000 1.000
57.700 605.000 1.000
57.720 660.000 1.000
57.740 667.000 1.000
57.760 662.000 1.000
57.780 608.000 1.000
57.800 589.000 1.000
57.820 553.000 1.000
57.840 624.000 1.000
57.860 630.000 1.000
57.880 630.000 1.000
57.900 627.000 1.000
57.920 646.000 1.000
57.940 628.000 1.000
57.960 629.000 1.000
57.980 611.000 1.000
58.000 675.000 1.000
58.020 696.000 1.000
58.040 761.000 1.000
58.060 755.000 1.000
58.080 798.000 1.000
58.100 811.000 1.000
58.120 775.000 1.000
58.140 728.000 1.000
58.160 702.000 1.000
58.180 697.000 1.000
58.200 670.000 1.000
58.220 702.000 1.000
58.240 678.000 1.000
58.260 651.000 1.000
58.280 670.000 1.000
58.300 625.000 1.000
58.320 613.000 1.000
58.340 556.000 1.000
58.360 553.000 1.000
58.380 512.000 1.000
58.400 491.000 1.000
58.420 487.000 1.000
58.440 463.000 1.000
58.460 493.000 1.000
58.480 506.000 1.000
58.500 472.000 1.000
58.520 476.000 1.000
58.540 463.000 1.000
58.560 464.000 1.000
58.580 500.000 1.000
58.600 480.000 1.000
58.620 468.000 1.000
58.640 544.000 1.000
58.660 466.000 1.000
58.680 501.000 1.000
58.700 507.000 1.000
58.720 502.000 1.000
58.740 538.000 1.000
58.760 528.000 1.000
58.780 474.000 1.000
58.800 514.000 1.000
58.820 491.000 1.000
58.840 502.000 1.000
58.860 507.000 1.000
58.880 518.000 1.000
58.900 518.000 1.000
58.920 486.000 1.000
58.940 523.000 1.000
58.960 532.000 1.000
58.980 575.000 1.000
59.000 559.000 1.000
59.020 569.000 1.000
59.040 576.000 1.000
59.060 606.000 1.000
59.080 620.000 1.000
59.100 601.000 1.000
59.120 643.000 1.000
59.140 620.000 1.000
59.160 600.000 1.000
59.180 502.000 1.000
59.200 551.000 1.000
59.220 555.000 1.000
59.240 526.000 1.000
59.260 543.000 1.000
59.280 494.000 1.000
59.300 569.000 1.000
59.320 539.000 1.000
59.340 541.000 1.000
59.360 581.000 1.000
59.380 606.000 1.000
59.400 622.000 1.000
59.420 657.000 1.000
59.440 648.000 1.000
59.460 721.000 1.000
59.480 732.000 1.000
59.500 702.000 1.000
59.520 668.000 1.000
59.540 657.000 1.000
59.560 634.000 1.000
59.580 651.000 1.000
59.600 631.000 1.000
59.620 639.000 1.000
59.640 627.000 1.000
59.660 627.000 1.000
59.680 576.000 1.000
59.700 585.000 1.000
59.720 553.000 1.000
59.740 555.000 1.000
59.760 494.000 1.000
59.780 515.000 1.000
59.800 500.000 1.000
59.820 518.000 1.000
59.840 547.000 1.000
59.860 549.000 1.000
59.880 594.000 1.000
59.900 621.000 1.000
59.920 670.000 1.000
59.940 725.000 1.000
59.960 734.000 1.000
59.980 685.000 1.000
60.000 662.000 1.000
60.020 607.000 1.000
60.040 583.000 1.000
60.060 574.000 1.000
60.080 573.000 1.000
60.100 611.000 1.000
60.120 564.000 1.000
60.140 576.000 1.000
60.160 573.000 1.000
60.180 527.000 1.000
60.200 495.000 1.000
60.220 493.000 1.000
60.240 510.000 1.000
60.260 490.000 1.000
60.280 484.000 1.000
60.300 495.000 1.000
60.320 501.000 1.000
60.340 516.000 1.000
60.360 557.000 1.000
60.380 597.000 1.000
60.400 560.000 1.000
60.420 547.000 1.000
60.440 503.000 1.000
60.460 522.000 1.000
60.480 485.000 1.000
60.500 555.000 1.000
60.520 529.000 1.000
60.540 481.000 1.000
60.560 499.000 1.000
60.580 500.000 1.000
60.600 507.000 1.000
60.620 459.000 1.000
60.640 471.000 1.000
60.660 434.000 1.000
60.680 419.000 1.000
60.700 434.000 1.000
60.720 441.000 1.000
60.740 437.000 1.000
60.760 410.000 1.000
60.780 387.000 1.000
60.800 402.000 1.000
60.820 391.000 1.000
60.840 415.000 1.000
60.860 419.000 1.000
60.880 381.000 1.000
60.900 435.000 1.000
60.920 410.000 1.000
60.940 418.000 1.000
60.960 420.000 1.000
60.980 442.000 1.000
61.000 425.000 1.000
61.020 460.000 1.000
61.040 511.000 1.000
61.060 470.000 1.000
61.080 509.000 1.000
61.100 490.000 1.000
61.120 470.000 1.000
61.140 466.000 1.000
61.160 484.000 1.000
61.180 499.000 1.000
61.200 511.000 1.000
61.220 485.000 1.000
61.240 500.000 1.000
61.260 513.000 1.000
61.280 495.000 1.000
61.300 471.000 1.000
61.320 475.000 1.000
61.340 478.000 1.000
61.360 461.000 1.000
61.380 459.000 1.000
61.400 449.000 1.000
61.420 448.000 1.000
61.440 449.000 1.000
61.460 412.000 1.000
61.480 400.000 1.000
61.500 459.000 1.000
61.520 443.000 1.000
61.540 451.000 1.000
61.560 452.000 1.000
61.580 442.000 1.000
61.600 430.000 1.000
61.620 436.000 1.000
61.640 437.000 1.000
61.660 452.000 1.000
61.680 406.000 1.000
61.700 385.000 1.000
61.720 424.000 1.000
61.740 388.000 1.000
61.760 407.000 1.000
61.780 433.000 1.000
61.800 439.000 1.000
61.820 430.000 1.000
61.840 402.000 1.000
61.860 442.000 1.000
61.880 431.000 1.000
61.900 513.000 1.000
61.920 496.000 1.000
61.940 519.000 1.000
61.960 527.000 1.000
61.980 565.000 1.000
62.000 598.000 1.000
62.020 639.000 1.000
62.040 664.000 1.000
62.060 648.000 1.000
62.080 653.000 1.000
62.100 593.000 1.000
62.120 546.000 1.000
62.140 516.000 1.000
62.160 581.000 1.000
62.180 583.000 1.000
62.200 609.000 1.000
62.220 600.000 1.000
62.240 586.000 1.000
62.260 561.000 1.000
62.280 514.000 1.000
62.300 474.000 1.000
62.320 495.000 1.000
62.340 459.000 1.000
62.360 425.000 1.000
62.380 466.000 1.000
62.400 422.000 1.000
62.420 426.000 1.000
62.440 413.000 1.000
62.460 418.000 1.000
62.480 406.000 1.000
62.500 413.000 1.000
62.520 395.000 1.000
62.540 421.000 1.000
62.560 388.000 1.000
62.580 386.000 1.000
62.600 393.000 1.000
62.620 434.000 1.000
62.640 389.000 1.000
62.660 412.000 1.000
62.680 441.000 1.000
62.700 446.000 1.000
62.720 490.000 1.000
62.740 536.000 1.000
62.760 559.000 1.000
62.780 568.000 1.000
62.800 579.000 1.000
62.820 531.000 1.000
62.840 507.000 1.000
62.860 452.000 1.000
62.880 442.000 1.000
62.900 484.000 1.000
62.920 464.000 1.000
62.940 482.000 1.000
62.960 479.000 1.000
62.980 433.000 1.000
63.000 448.000 1.000
63.020 423.000 1.000
63.040 432.000 1.000
63.060 425.000 1.000
63.080 390.000 1.000
63.100 421.000 1.000
63.120 414.000 1.000
63.140 390.000 1.000
63.160 425.000 1.000
63.180 449.000 1.000
63.200 426.000 1.000
63.220 441.000 1.000
63.240 406.000 1.000
63.260 451.000 1.000
63.280 439.000 1.000
63.300 436.000 1.000
63.320 425.000 1.000
63.340 412.000 1.000
63.360 396.000 1.000
63.380 391.000 1.000
63.400 421.000 1.000
63.420 422.000 1.000
63.440 446.000 1.000
63.460 451.000 1.000
63.480 419.000 1.000
63.500 414.000 1.000
63.520 427.000 1.000
63.540 422.000 1.000
63.560 413.000 1.000
63.580 407.000 1.000
63.600 401.000 1.000
63.620 399.000 1.000
63.640 403.000 1.000
63.660 407.000 1.000
63.680 416.000 1.000
63.700 440.000 1.000
63.720 420.000 1.000
63.740 391.000 1.000
63.760 406.000 1.000
63.780 430.000 1.000
63.800 399.000 1.000
63.820 375.000 1.000
63.840 380.000 1.000
63.860 418.000 1.000
63.880 408.000 1.000
63.900 396.000 1.000
63.920 406.000 1.000
63.940 399.000 1.000
63.960 387.000 1.000
63.980 414.000 1.000
64.000 374.000 1.000
64.020 380.000 1.000
64.040 351.000 1.000
64.060 381.000 1.000
64.080 395.000 1.000
64.100 416.000 1.000
64.120 418.000 1.000
64.140 408.000 1.000
64.160 435.000 1.000
64.180 423.000 1.000
64.200 414.000 1.000
64.220 414.000 1.000
64.240 417.000 1.000
64.260 449.000 1.000
64.280 422.000 1.000
64.300 418.000 1.000
64.320 407.000 1.000
64.340 406.000 1.000
64.360 435.000 1.000
64.380 409.000 1.000
64.400 435.000 1.000
64.420 393.000 1.000
64.440 387.000 1.000
64.460 386.000 1.000
64.480 438.000 1.000
64.500 421.000 1.000
64.520 451.000 1.000
64.540 425.000 1.000
64.560 454.000 1.000
64.580 450.000 1.000
64.600 423.000 1.000
64.620 448.000 1.000
64.640 446.000 1.000
64.660 408.000 1.000
64.680 399.000 1.000
64.700 423.000 1.000
64.720 410.000 1.000
64.740 416.000 1.000
64.760 411.000 1.000
64.780 414.000 1.000
64.800 411.000 1.000
64.820 380.000 1.000
64.840 353.000 1.000
64.860 389.000 1.000
64.880 366.000 1.000
64.900 364.000 1.000
64.920 360.000 1.000
64.940 342.000 1.000
64.960 378.000 1.000
64.980 356.000 1.000
65.000 369.000 1.000
65.020 367.000 1.000
65.040 389.000 1.000
65.060 366.000 1.000
65.080 361.000 1.000
65.100 373.000 1.000
65.120 366.000 1.000
65.140 356.000 1.000
65.160 351.000 1.000
65.180 387.000 1.000
65.200 378.000 1.000
65.220 374.000 1.000
65.240 382.000 1.000
65.260 359.000 1.000
65.280 388.000 1.000
65.300 386.000 1.000
65.320 368.000 1.000
65.340 377.000 1.000
65.360 368.000 1.000
65.380 381.000 1.000
65.400 354.000 1.000
65.420 365.000 1.000
65.440 376.000 1.000
65.460 423.000 1.000
65.480 397.000 1.000
65.500 393.000 1.000
65.520 409.000 1.000
65.540 406.000 1.000
65.560 412.000 1.000
65.580 400.000 1.000
65.600 417.000 1.000
65.620 390.000 1.000
65.640 439.000 1.000
65.660 451.000 1.000
65.680 418.000 1.000
65.700 397.000 1.000
65.720 443.000 1.000
65.740 499.000 1.000
65.760 477.000 1.000
65.780 507.000 1.000
65.800 541.000 1.000
65.820 526.000 1.000
65.840 504.000 1.000
65.860 480.000 1.000
65.880 497.000 1.000
65.900 447.000 1.000
65.920 429.000 1.000
65.940 495.000 1.000
65.960 495.000 1.000
65.980 494.000 1.000
66.000 525.000 1.000
66.020 511.000 1.000
66.040 501.000 1.000
66.060 468.000 1.000
66.080 439.000 1.000
66.100 466.000 1.000
66.120 460.000 1.000
66.140 518.000 1.000
66.160 533.000 1.000
66.180 498.000 1.000
66.200 549.000 1.000
66.220 508.000 1.000
66.240 492.000 1.000
66.260 538.000 1.000
66.280 542.000 1.000
66.300 534.000 1.000
66.320 525.000 1.000
66.340 589.000 1.000
66.360 604.000 1.000
66.380 588.000 1.000
66.400 641.000 1.000
66.420 665.000 1.000
66.440 616.000 1.000
66.460 667.000 1.000
66.480 615.000 1.000
66.500 614.000 1.000
66.520 628.000 1.000
66.540 556.000 1.000
66.560 557.000 1.000
66.580 541.000 1.000
66.600 515.000 1.000
66.620 502.000 1.000
66.640 521.000 1.000
66.660 517.000 1.000
66.680 487.000 1.000
66.700 474.000 1.000
66.720 455.000 1.000
66.740 450.000 1.000
66.760 433.000 1.000
66.780 381.000 1.000
66.800 394.000 1.000
66.820 364.000 1.000
66.840 381.000 1.000
66.860 396.000 1.000
66.880 426.000 1.000
66.900 378.000 1.000
66.920 418.000 1.000
66.940 377.000 1.000
66.960 384.000 1.000
66.980 384.000 1.000
67.000 386.000 1.000
67.020 382.000 1.000
67.040 379.000 1.000
67.060 371.000 1.000
67.080 413.000 1.000
67.100 396.000 1.000
67.120 397.000 1.000
67.140 421.000 1.000
67.160 413.000 1.000
67.180 412.000 1.000
67.200 392.000 1.000
67.220 398.000 1.000
67.240 389.000 1.000
67.260 435.000 1.000
67.280 460.000 1.000
67.300 476.000 1.000
67.320 492.000 1.000
67.340 585.000 1.000
67.360 676.000 1.000
67.380 685.000 1.000
67.400 661.000 1.000
67.420 681.000 1.000
67.440 703.000 1.000
67.460 704.000 1.000
67.480 643.000 1.000
67.500 551.000 1.000
67.520 563.000 1.000
67.540 532.000 1.000
67.560 608.000 1.000
67.580 589.000 1.000
67.600 533.000 1.000
67.620 553.000 1.000
67.640 516.000 1.000
67.660 566.000 1.000
67.680 495.000 1.000
67.700 450.000 1.000
67.720 444.000 1.000
67.740 437.000 1.000
67.760 401.000 1.000
67.780 449.000 1.000
67.800 469.000 1.000
67.820 443.000 1.000
67.840 419.000 1.000
67.860 444.000 1.000
67.880 415.000 1.000
67.900 414.000 1.000
67.920 434.000 1.000
67.940 465.000 1.000
67.960 444.000 1.000
67.980 465.000 1.000
68.000 444.000 1.000
68.020 449.000 1.000
68.040 485.000 1.000
68.060 437.000 1.000
68.080 444.000 1.000
68.100 415.000 1.000
68.120 412.000 1.000
68.140 420.000 1.000
68.160 410.000 1.000
68.180 376.000 1.000
68.200 420.000 1.000
68.220 378.000 1.000
68.240 385.000 1.000
68.260 376.000 1.000
68.280 396.000 1.000
68.300 406.000 1.000
68.320 375.000 1.000
68.340 386.000 1.000
68.360 369.000 1.000
68.380 364.000 1.000
68.400 355.000 1.000
68.420 338.000 1.000
68.440 352.000 1.000
68.460 358.000 1.000
68.480 363.000 1.000
68.500 379.000 1.000
68.520 344.000 1.000
68.540 340.000 1.000
68.560 358.000 1.000
68.580 347.000 1.000
68.600 359.000 1.000
68.620 363.000 1.000
68.640 375.000 1.000
68.660 386.000 1.000
68.680 358.000 1.000
68.700 329.000 1.000
68.720 338.000 1.000
68.740 350.000 1.000
68.760 349.000 1.000
68.780 354.000 1.000
68.800 336.000 1.000
68.820 366.000 1.000
68.840 346.000 1.000
68.860 343.000 1.000
68.880 334.000 1.000
68.900 392.000 1.000
68.920 351.000 1.000
68.940 367.000 1.000
68.960 381.000 1.000
68.980 365.000 1.000
69.000 383.000 1.000
69.020 385.000 1.000
69.040 377.000 1.000
69.060 358.000 1.000
69.080 346.000 1.000
69.100 361.000 1.000
69.120 395.000 1.000
69.140 361.000 1.000
69.160 384.000 1.000
69.180 396.000 1.000
69.200 352.000 1.000
69.220 353.000 1.000
69.240 387.000 1.000
69.260 358.000 1.000
69.280 355.000 1.000
69.300 385.000 1.000
69.320 362.000 1.000
69.340 350.000 1.000
69.360 359.000 1.000
69.380 383.000 1.000
69.400 367.000 1.000
69.420 359.000 1.000
69.440 380.000 1.000
69.460 386.000 1.000
69.480 370.000 1.000
69.500 398.000 1.000
69.520 406.000 1.000
69.540 412.000 1.000
69.560 387.000 1.000
69.580 369.000 1.000
69.600 406.000 1.000
69.620 393.000 1.000
69.640 403.000 1.000
69.660 402.000 1.000
69.680 443.000 1.000
69.700 438.000 1.000
69.720 423.000 1.000
69.740 418.000 1.000
69.760 396.000 1.000
69.780 417.000 1.000
69.800 396.000 1.000
69.820 405.000 1.000
69.840 418.000 1.000
69.860 387.000 1.000
69.880 368.000 1.000
69.900 399.000 1.000
69.920 389.000 1.000
69.940 400.000 1.000
69.960 396.000 1.000
69.980 395.000 1.000
70.000 400.000 1.000
70.020 415.000 1.000
70.040 394.000 1.000
70.060 417.000 1.000
70.080 418.000 1.000
70.100 418.000 1.000
70.120 391.000 1.000
70.140 418.000 1.000
70.160 433.000 1.000
70.180 431.000 1.000
70.200 383.000 1.000
70.220 431.000 1.000
70.240 378.000 1.000
70.260 396.000 1.000
70.280 397.000 1.000
70.300 372.000 1.000
70.320 415.000 1.000
70.340 375.000 1.000
70.360 370.000 1.000
70.380 375.000 1.000
70.400 392.000 1.000
70.420 382.000 1.000
70.440 368.000 1.000
70.460 392.000 1.000
70.480 384.000 1.000
70.500 380.000 1.000
70.520 366.000 1.000
70.540 352.000 1.000
70.560 373.000 1.000
70.580 364.000 1.000
70.600 379.000 1.000
70.620 349.000 1.000
70.640 374.000 1.000
70.660 362.000 1.000
70.680 363.000 1.000
70.700 364.000 1.000
70.720 371.000 1.000
70.740 373.000 1.000
70.760 355.000 1.000
70.780 360.000 1.000
70.800 391.000 1.000
70.820 353.000 1.000
70.840 389.000 1.000
70.860 359.000 1.000
70.880 421.000 1.000
70.900 411.000 1.000
70.920 380.000 1.000
70.940 405.000 1.000
70.960 408.000 1.000
70.980 411.000 1.000
71.000 392.000 1.000
71.020 405.000 1.000
71.040 383.000 1.000
71.060 398.000 1.000
71.080 369.000 1.000
71.100 421.000 1.000
71.120 401.000 1.000
71.140 398.000 1.000
71.160 378.000 1.000
71.180 367.000 1.000
71.200 388.000 1.000
71.220 418.000 1.000
71.240 408.000 1.000
71.260 365.000 1.000
71.280 359.000 1.000
71.300 381.000 1.000
71.320 393.000 1.000
71.340 375.000 1.000
71.360 401.000 1.000
71.380 359.000 1.000
71.400 404.000 1.000
71.420 420.000 1.000
71.440 374.000 1.000
71.460 352.000 1.000
71.480 362.000 1.000
71.500 362.000 1.000
71.520 385.000 1.000
71.540 376.000 1.000
71.560 394.000 1.000
71.580 385.000 1.000
71.600 392.000 1.000
71.620 360.000 1.000
71.640 394.000 1.000
71.660 367.000 1.000
71.680 385.000 1.000
71.700 371.000 1.000
71.720 367.000 1.000
71.740 375.000 1.000
71.760 357.000 1.000
71.780 387.000 1.000
71.800 366.000 1.000
71.820 338.000 1.000
71.840 360.000 1.000
71.860 345.000 1.000
71.880 361.000 1.000
71.900 362.000 1.000
71.920 348.000 1.000
71.940 378.000 1.000
71.960 345.000 1.000
71.980 340.000 1.000
72.000 337.000 1.000
72.020 357.000 1.000
72.040 335.000 1.000
72.060 348.000 1.000
72.080 356.000 1.000
72.100 345.000 1.000
72.120 336.000 1.000
72.140 347.000 1.000
72.160 345.000 1.000
72.180 315.000 1.000
72.200 335.000 1.000
72.220 325.000 1.000
72.240 308.000 1.000
72.260 320.000 1.000
72.280 342.000 1.000
72.300 365.000 1.000
72.320 351.000 1.000
72.340 352.000 1.000
72.360 345.000 1.000
72.380 361.000 1.000
72.400 381.000 1.000
72.420 383.000 1.000
72.440 386.000 1.000
72.460 419.000 1.000
72.480 396.000 1.000
72.500 406.000 1.000
72.520 397.000 1.000
72.540 382.000 1.000
72.560 375.000 1.000
72.580 401.000 1.000
72.600 397.000 1.000
72.620 429.000 1.000
72.640 398.000 1.000
72.660 404.000 1.000
72.680 388.000 1.000
72.700 380.000 1.000
72.720 371.000 1.000
72.740 358.000 1.000
72.760 388.000 1.000
72.780 374.000 1.000
72.800 392.000 1.000
72.820 377.000 1.000
72.840 373.000 1.000
72.860 356.000 1.000
72.880 360.000 1.000
72.900 352.000 1.000
72.920 342.000 1.000
72.940 358.000 1.000
72.960 337.000 1.000
72.980 331.000 1.000
73.000 356.000 1.000
73.020 350.000 1.000
73.040 356.000 1.000
73.060 381.000 1.000
73.080 381.000 1.000
73.100 357.000 1.000
73.120 348.000 1.000
73.140 364.000 1.000
73.160 376.000 1.000
73.180 352.000 1.000
73.200 330.000 1.000
73.220 353.000 1.000
73.240 366.000 1.000
73.260 348.000 1.000
73.280 317.000 1.000
73.300 311.000 1.000
73.320 351.000 1.000
73.340 358.000 1.000
73.360 372.000 1.000
73.380 357.000 1.000
73.400 367.000 1.000
73.420 335.000 1.000
73.440 347.000 1.000
73.460 349.000 1.000
73.480 325.000 1.000
73.500 337.000 1.000
73.520 356.000 1.000
73.540 328.000 1.000
73.560 327.000 1.000
73.580 303.000 1.000
73.600 315.000 1.000
73.620 308.000 1.000
73.640 309.000 1.000
73.660 338.000 1.000
73.680 318.000 1.000
73.700 319.000 1.000
73.720 342.000 1.000
73.740 347.000 1.000
73.760 325.000 1.000
73.780 318.000 1.000
73.800 327.000 1.000
73.820 342.000 1.000
73.840 303.000 1.000
73.860 314.000 1.000
73.880 326.000 1.000
73.900 350.000 1.000
73.920 330.000 1.000
73.940 345.000 1.000
73.960 331.000 1.000
73.980 330.000 1.000
74.000 360.000 1.000
74.020 346.000 1.000
74.040 333.000 1.000
74.060 388.000 1.000
74.080 375.000 1.000
74.100 358.000 1.000
74.120 345.000 1.000
74.140 334.000 1.000
74.160 335.000 1.000
74.180 342.000 1.000
74.200 351.000 1.000
74.220 372.000 1.000
74.240 351.000 1.000
74.260 372.000 1.000
74.280 401.000 1.000
74.300 382.000 1.000
74.320 416.000 1.000
74.340 425.000 1.000
74.360 430.000 1.000
74.380 440.000 1.000
74.400 410.000 1.000
74.420 418.000 1.000
74.440 406.000 1.000
74.460 384.000 1.000
74.480 379.000 1.000
74.500 367.000 1.000
74.520 403.000 1.000
74.540 380.000 1.000
74.560 401.000 1.000
74.580 420.000 1.000
74.600 423.000 1.000
74.620 459.000 1.000
74.640 450.000 1.000
74.660 479.000 1.000
74.680 459.000 1.000
74.700 459.000 1.000
74.720 433.000 1.000
74.740 411.000 1.000
74.760 407.000 1.000
74.780 433.000 1.000
74.800 433.000 1.000
74.820 434.000 1.000
74.840 409.000 1.000
74.860 422.000 1.000
74.880 379.000 1.000
74.900 410.000 1.000
74.920 415.000 1.000
74.940 358.000 1.000
74.960 386.000 1.000
74.980 381.000 1.000
75.000 390.000 1.000
75.020 369.000 1.000
75.040 374.000 1.000
75.060 372.000 1.000
75.080 376.000 1.000
75.100 373.000 1.000
75.120 394.000 1.000
75.140 364.000 1.000
75.160 350.000 1.000
75.180 325.000 1.000
75.200 355.000 1.000
75.220 355.000 1.000
75.240 338.000 1.000
75.260 359.000 1.000
75.280 340.000 1.000
75.300 308.000 1.000
75.320 341.000 1.000
75.340 349.000 1.000
75.360 327.000 1.000
75.380 329.000 1.000
75.400 328.000 1.000
75.420 355.000 1.000
75.440 324.000 1.000
75.460 304.000 1.000
75.480 302.000 1.000
75.500 313.000 1.000
75.520 348.000 1.000
75.540 322.000 1.000
75.560 292.000 1.000
75.580 329.000 1.000
75.600 352.000 1.000
75.620 370.000 1.000
75.640 331.000 1.000
75.660 355.000 1.000
75.680 364.000 1.000
75.700 331.000 1.000
75.720 331.000 1.000
75.740 343.000 1.000
75.760 322.000 1.000
75.780 347.000 1.000
75.800 334.000 1.000
75.820 356.000 1.000
75.840 363.000 1.000
75.860 360.000 1.000
75.880 322.000 1.000
75.900 340.000 1.000
75.920 331.000 1.000
75.940 334.000 1.000
75.960 369.000 1.000
75.980 350.000 1.000
76.000 339.000 1.000
76.020 326.000 1.000
76.040 332.000 1.000
76.060 335.000 1.000
76.080 328.000 1.000
76.100 323.000 1.000
76.120 348.000 1.000
76.140 345.000 1.000
76.160 321.000 1.000
76.180 312.000 1.000
76.200 342.000 1.000
76.220 359.000 1.000
76.240 311.000 1.000
76.260 367.000 1.000
76.280 364.000 1.000
76.300 354.000 1.000
76.320 393.000 1.000
76.340 346.000 1.000
76.360 375.000 1.000
76.380 405.000 1.000
76.400 426.000 1.000
76.420 433.000 1.000
76.440 476.000 1.000
76.460 453.000 1.000
76.480 485.000 1.000
76.500 481.000 1.000
76.520 462.000 1.000
76.540 428.000 1.000
76.560 446.000 1.000
76.580 400.000 1.000
76.600 371.000 1.000
76.620 403.000 1.000
76.640 396.000 1.000
76.660 369.000 1.000
76.680 394.000 1.000
76.700 393.000 1.000
76.720 381.000 1.000
76.740 381.000 1.000
76.760 380.000 1.000
76.780 352.000 1.000
76.800 369.000 1.000
76.820 363.000 1.000
76.840 351.000 1.000
76.860 326.000 1.000
76.880 336.000 1.000
76.900 334.000 1.000
76.920 345.000 1.000
76.940 366.000 1.000
76.960 351.000 1.000
76.980 359.000 1.000
77.000 364.000 1.000
77.020 334.000 1.000
77.040 340.000 1.000
77.060 322.000 1.000
77.080 330.000 1.000
77.100 320.000 1.000
77.120 349.000 1.000
77.140 325.000 1.000
77.160 342.000 1.000
77.180 302.000 1.000
77.200 322.000 1.000
77.220 332.000 1.000
77.240 320.000 1.000
77.260 324.000 1.000
77.280 309.000 1.000
77.300 354.000 1.000
77.320 365.000 1.000
77.340 337.000 1.000
77.360 328.000 1.000
77.380 343.000 1.000
77.400 322.000 1.000
77.420 346.000 1.000
77.440 350.000 1.000
77.460 347.000 1.000
77.480 341.000 1.000
77.500 335.000 1.000
77.520 349.000 1.000
77.540 324.000 1.000
77.560 301.000 1.000
77.580 313.000 1.000
77.600 313.000 1.000
77.620 326.000 1.000
77.640 288.000 1.000
77.660 316.000 1.000
77.680 315.000 1.000
77.700 323.000 1.000
77.720 322.000 1.000
77.740 308.000 1.000
77.760 279.000 1.000
77.780 284.000 1.000
77.800 292.000 1.000
77.820 313.000 1.000
77.840 307.000 1.000
77.860 302.000 1.000
77.880 275.000 1.000
77.900 313.000 1.000
77.920 289.000 1.000
77.940 294.000 1.000
77.960 287.000 1.000
77.980 307.000 1.000
78.000 299.000 1.000
78.020 284.000 1.000
78.040 301.000 1.000
78.060 295.000 1.000
78.080 302.000 1.000
78.100 301.000 1.000
78.120 304.000 1.000
78.140 300.000 1.000
78.160 277.000 1.000
78.180 305.000 1.000
78.200 315.000 1.000
78.220 311.000 1.000
78.240 300.000 1.000
78.260 331.000 1.000
78.280 269.000 1.000
78.300 293.000 1.000
78.320 314.000 1.000
78.340 287.000 1.000
78.360 274.000 1.000
78.380 309.000 1.000
78.400 298.000 1.000
78.420 302.000 1.000
78.440 320.000 1.000
78.460 320.000 1.000
78.480 306.000 1.000
78.500 327.000 1.000
78.520 354.000 1.000
78.540 340.000 1.000
78.560 323.000 1.000
78.580 326.000 1.000
78.600 340.000 1.000
78.620 359.000 1.000
78.640 336.000 1.000
78.660 357.000 1.000
78.680 367.000 1.000
78.700 367.000 1.000
78.720 377.000 1.000
78.740 390.000 1.000
78.760 391.000 1.000
78.780 440.000 1.000
78.800 460.000 1.000
78.820 481.000 1.000
78.840 491.000 1.000
78.860 527.000 1.000
78.880 481.000 1.000
78.900 448.000 1.000
78.920 448.000 1.000
78.940 476.000 1.000
78.960 375.000 1.000
78.980 415.000 1.000
79.000 420.000 1.000
79.020 409.000 1.000
79.040 440.000 1.000
79.060 443.000 1.000
79.080 433.000 1.000
79.100 498.000 1.000
79.120 439.000 1.000
79.140 423.000 1.000
79.160 398.000 1.000
79.180 369.000 1.000
79.200 370.000 1.000
79.220 345.000 1.000
79.240 317.000 1.000
79.260 339.000 1.000
79.280 340.000 1.000
79.300 320.000 1.000
79.320 337.000 1.000
79.340 323.000 1.000
79.360 326.000 1.000
79.380 307.000 1.000
79.400 326.000 1.000
79.420 302.000 1.000
79.440 315.000 1.000
79.460 328.000 1.000
79.480 292.000 1.000
79.500 275.000 1.000
79.520 316.000 1.000
79.540 354.000 1.000
79.560 296.000 1.000
79.580 305.000 1.000
79.600 305.000 1.000
79.620 303.000 1.000
79.640 280.000 1.000
79.660 307.000 1.000
79.680 301.000 1.000
79.700 340.000 1.000
79.720 311.000 1.000
79.740 274.000 1.000
79.760 309.000 1.000
79.780 293.000 1.000
79.800 306.000 1.000
79.820 297.000 1.000
79.840 349.000 1.000
79.860 322.000 1.000
79.880 319.000 1.000
79.900 320.000 1.000
79.920 321.000 1.000
79.940 340.000 1.000
79.960 331.000 1.000
79.980 339.000 1.000
80.000 340.000 1.000
80.020 328.000 1.000
80.040 326.000 1.000
80.060 337.000 1.000
80.080 335.000 1.000
80.100 335.000 1.000
80.120 326.000 1.000
80.140 356.000 1.000
80.160 341.000 1.000
80.180 345.000 1.000
80.200 365.000 1.000
80.220 340.000 1.000
80.240 357.000 1.000
80.260 331.000 1.000
80.280 318.000 1.000
80.300 358.000 1.000
80.320 339.000 1.000
80.340 341.000 1.000
80.360 327.000 1.000
80.380 337.000 1.000
80.400 343.000 1.000
80.420 336.000 1.000
80.440 355.000 1.000
80.460 343.000 1.000
80.480 339.000 1.000
80.500 349.000 1.000
80.520 340.000 1.000
80.540 313.000 1.000
80.560 319.000 1.000
80.580 300.000 1.000
80.600 335.000 1.000
80.620 338.000 1.000
80.640 367.000 1.000
80.660 356.000 1.000
80.680 348.000 1.000
80.700 331.000 1.000
80.720 315.000 1.000
80.740 346.000 1.000
80.760 359.000 1.000
80.780 365.000 1.000
80.800 336.000 1.000
80.820 345.000 1.000
80.840 336.000 1.000
80.860 362.000 1.000
80.880 338.000 1.000
80.900 347.000 1.000
80.920 343.000 1.000
80.940 347.000 1.000
80.960 354.000 1.000
80.980 366.000 1.000
81.000 364.000 1.000
81.020 384.000 1.000
81.040 400.000 1.000
81.060 423.000 1.000
81.080 430.000 1.000
81.100 446.000 1.000
81.120 464.000 1.000
81.140 470.000 1.000
81.160 478.000 1.000
81.180 455.000 1.000
81.200 422.000 1.000
81.220 431.000 1.000
81.240 383.000 1.000
81.260 398.000 1.000
81.280 386.000 1.000
81.300 401.000 1.000
81.320 426.000 1.000
81.340 394.000 1.000
81.360 404.000 1.000
81.380 389.000 1.000
81.400 362.000 1.000
81.420 378.000 1.000
81.440 379.000 1.000
81.460 342.000 1.000
81.480 356.000 1.000
81.500 333.000 1.000
81.520 338.000 1.000
81.540 351.000 1.000
81.560 325.000 1.000
81.580 315.000 1.000
81.600 309.000 1.000
81.620 307.000 1.000
81.640 316.000 1.000
81.660 332.000 1.000
81.680 295.000 1.000
81.700 306.000 1.000
81.720 330.000 1.000
81.740 369.000 1.000
81.760 348.000 1.000
81.780 355.000 1.000
81.800 357.000 1.000
81.820 335.000 1.000
81.840 367.000 1.000
81.860 359.000 1.000
81.880 324.000 1.000
81.900 345.000 1.000
81.920 355.000 1.000
81.940 316.000 1.000
81.960 303.000 1.000
81.980 334.000 1.000
82.000 336.000 1.000
82.020 312.000 1.000
82.040 325.000 1.000
82.060 304.000 1.000
82.080 330.000 1.000
82.100 318.000 1.000
82.120 303.000 1.000
82.140 328.000 1.000
82.160 319.000 1.000
82.180 306.000 1.000
82.200 317.000 1.000
82.220 299.000 1.000
82.240 302.000 1.000
82.260 318.000 1.000
82.280 336.000 1.000
82.300 333.000 1.000
82.320 332.000 1.000
82.340 347.000 1.000
82.360 376.000 1.000
82.380 365.000 1.000
82.400 359.000 1.000
82.420 373.000 1.000
82.440 404.000 1.000
82.460 449.000 1.000
82.480 457.000 1.000
82.500 458.000 1.000
82.520 441.000 1.000
82.540 454.000 1.000
82.560 406.000 1.000
82.580 334.000 1.000
82.600 331.000 1.000
82.620 335.000 1.000
82.640 332.000 1.000
82.660 335.000 1.000
82.680 370.000 1.000
82.700 385.000 1.000
82.720 418.000 1.000
82.740 395.000 1.000
82.760 362.000 1.000
82.780 400.000 1.000
82.800 360.000 1.000
82.820 323.000 1.000
82.840 330.000 1.000
82.860 313.000 1.000
82.880 326.000 1.000
82.900 322.000 1.000
82.920 320.000 1.000
82.940 291.000 1.000
82.960 314.000 1.000
82.980 339.000 1.000
83.000 336.000 1.000
83.020 305.000 1.000
83.040 327.000 1.000
83.060 320.000 1.000
83.080 344.000 1.000
83.100 332.000 1.000
83.120 348.000 1.000
83.140 349.000 1.000
83.160 355.000 1.000
83.180 337.000 1.000
83.200 372.000 1.000
83.220 371.000 1.000
83.240 366.000 1.000
83.260 353.000 1.000
83.280 325.000 1.000
83.300 323.000 1.000
83.320 327.000 1.000
83.340 328.000 1.000
83.360 321.000 1.000
83.380 311.000 1.000
83.400 318.000 1.000
83.420 315.000 1.000
83.440 347.000 1.000
83.460 334.000 1.000
83.480 356.000 1.000
83.500 329.000 1.000
83.520 328.000 1.000
83.540 337.000 1.000
83.560 316.000 1.000
83.580 341.000 1.000
83.600 331.000 1.000
83.620 281.000 1.000
83.640 293.000 1.000
83.660 306.000 1.000
83.680 285.000 1.000
83.700 299.000 1.000
83.720 307.000 1.000
83.740 281.000 1.000
83.760 305.000 1.000
83.780 294.000 1.000
83.800 287.000 1.000
83.820 313.000 1.000
83.840 291.000 1.000
83.860 310.000 1.000
83.880 316.000 1.000
83.900 291.000 1.000
83.920 340.000 1.000
83.940 286.000 1.000
83.960 287.000 1.000
83.980 282.000 1.000
84.000 288.000 1.000
84.020 284.000 1.000
84.040 300.000 1.000
84.060 289.000 1.000
84.080 267.000 1.000
84.100 260.000 1.000
84.120 296.000 1.000
84.140 286.000 1.000
84.160 310.000 1.000
84.180 305.000 1.000
84.200 292.000 1.000
84.220 276.000 1.000
84.240 273.000 1.000
84.260 300.000 1.000
84.280 288.000 1.000
84.300 313.000 1.000
84.320 326.000 1.000
84.340 338.000 1.000
84.360 360.000 1.000
84.380 373.000 1.000
84.400 399.000 1.000
84.420 404.000 1.000
84.440 412.000 1.000
84.460 399.000 1.000
84.480 431.000 1.000
84.500 403.000 1.000
84.520 389.000 1.000
84.540 364.000 1.000
84.560 387.000 1.000
84.580 369.000 1.000
84.600 380.000 1.000
84.620 385.000 1.000
84.640 355.000 1.000
84.660 384.000 1.000
84.680 383.000 1.000
84.700 404.000 1.000
84.720 397.000 1.000
84.740 424.000 1.000
84.760 391.000 1.000
84.780 366.000 1.000
84.800 383.000 1.000
84.820 360.000 1.000
84.840 323.000 1.000
84.860 333.000 1.000
84.880 335.000 1.000
84.900 358.000 1.000
84.920 339.000 1.000
84.940 312.000 1.000
84.960 321.000 1.000
84.980 357.000 1.000
85.000 307.000 1.000
85.020 328.000 1.000
85.040 337.000 1.000
85.060 331.000 1.000
85.080 333.000 1.000
85.100 337.000 1.000
85.120 325.000 1.000
85.140 359.000 1.000
85.160 295.000 1.000
85.180 334.000 1.000
85.200 319.000 1.000
85.220 343.000 1.000
85.240 329.000 1.000
85.260 318.000 1.000
85.280 291.000 1.000
85.300 329.000 1.000
85.320 310.000 1.000
85.340 284.000 1.000
85.360 296.000 1.000
85.380 285.000 1.000
85.400 288.000 1.000
85.420 288.000 1.000
85.440 318.000 1.000
85.460 292.000 1.000
85.480 304.000 1.000
85.500 325.000 1.000
85.520 313.000 1.000
85.540 317.000 1.000
85.560 287.000 1.000
85.580 286.000 1.000
85.600 292.000 1.000
85.620 274.000 1.000
85.640 305.000 1.000
85.660 326.000 1.000
85.680 323.000 1.000
85.700 322.000 1.000
85.720 292.000 1.000
85.740 301.000 1.000
85.760 287.000 1.000
85.780 294.000 1.000
85.800 321.000 1.000
85.820 295.000 1.000
85.840 292.000 1.000
85.860 280.000 1.000
85.880 299.000 1.000
85.900 290.000 1.000
85.920 280.000 1.000
85.940 294.000 1.000
85.960 287.000 1.000
85.980 286.000 1.000
86.000 279.000 1.000
86.020 295.000 1.000
86.040 317.000 1.000
86.060 302.000 1.000
86.080 300.000 1.000
86.100 254.000 1.000
86.120 279.000 1.000
86.140 304.000 1.000
86.160 290.000 1.000
86.180 305.000 1.000
86.200 298.000 1.000
86.220 297.000 1.000
86.240 294.000 1.000
86.260 318.000 1.000
86.280 310.000 1.000
86.300 295.000 1.000
86.320 292.000 1.000
86.340 305.000 1.000
86.360 300.000 1.000
86.380 284.000 1.000
86.400 296.000 1.000
86.420 272.000 1.000
86.440 298.000 1.000
86.460 320.000 1.000
86.480 330.000 1.000
86.500 287.000 1.000
86.520 280.000 1.000
86.540 289.000 1.000
86.560 312.000 1.000
86.580 271.000 1.000
86.600 285.000 1.000
86.620 275.000 1.000
86.640 277.000 1.000
86.660 299.000 1.000
86.680 280.000 1.000
86.700 288.000 1.000
86.720 263.000 1.000
86.740 296.000 1.000
86.760 282.000 1.000
86.780 304.000 1.000
86.800 289.000 1.000
86.820 323.000 1.000
86.840 284.000 1.000
86.860 279.000 1.000
86.880 285.000 1.000
86.900 322.000 1.000
86.920 295.000 1.000
86.940 309.000 1.000
86.960 278.000 1.000
86.980 289.000 1.000
87.000 308.000 1.000
87.020 306.000 1.000
87.040 283.000 1.000
87.060 265.000 1.000
87.080 294.000 1.000
87.100 284.000 1.000
87.120 297.000 1.000
87.140 307.000 1.000
87.160 296.000 1.000
87.180 293.000 1.000
87.200 283.000 1.000
87.220 295.000 1.000
87.240 284.000 1.000
87.260 286.000 1.000
87.280 306.000 1.000
87.300 290.000 1.000
87.320 287.000 1.000
87.340 306.000 1.000
87.360 294.000 1.000
87.380 294.000 1.000
87.400 294.000 1.000
87.420 268.000 1.000
87.440 280.000 1.000
87.460 322.000 1.000
87.480 304.000 1.000
87.500 304.000 1.000
87.520 319.000 1.000
87.540 287.000 1.000
87.560 297.000 1.000
87.580 308.000 1.000
87.600 317.000 1.000
87.620 294.000 1.000
87.640 268.000 1.000
87.660 317.000 1.000
87.680 280.000 1.000
87.700 279.000 1.000
87.720 279.000 1.000
87.740 281.000 1.000
87.760 302.000 1.000
87.780 313.000 1.000
87.800 260.000 1.000
87.820 263.000 1.000
87.840 310.000 1.000
87.860 298.000 1.000
87.880 278.000 1.000
87.900 294.000 1.000
87.920 286.000 1.000
87.940 306.000 1.000
87.960 303.000 1.000
87.980 312.000 1.000
88.000 278.000 1.000
88.020 313.000 1.000
88.040 260.000 1.000
88.060 289.000 1.000
88.080 280.000 1.000
88.100 275.000 1.000
88.120 269.000 1.000
88.140 269.000 1.000
88.160 304.000 1.000
88.180 252.000 1.000
88.200 294.000 1.000
88.220 303.000 1.000
88.240 303.000 1.000
88.260 273.000 1.000
88.280 257.000 1.000
88.300 271.000 1.000
88.320 342.000 1.000
88.340 302.000 1.000
88.360 293.000 1.000
88.380 275.000 1.000
88.400 296.000 1.000
88.420 290.000 1.000
88.440 300.000 1.000
88.460 289.000 1.000
88.480 292.000 1.000
88.500 300.000 1.000
88.520 273.000 1.000
88.540 305.000 1.000
88.560 296.000 1.000
88.580 305.000 1.000
88.600 289.000 1.000
88.620 274.000 1.000
88.640 291.000 1.000
88.660 269.000 1.000
88.680 278.000 1.000
88.700 282.000 1.000
88.720 290.000 1.000
88.740 299.000 1.000
88.760 273.000 1.000
88.780 314.000 1.000
88.800 313.000 1.000
88.820 281.000 1.000
88.840 311.000 1.000
88.860 308.000 1.000
88.880 318.000 1.000
88.900 275.000 1.000
88.920 295.000 1.000
88.940 289.000 1.000
88.960 308.000 1.000
88.980 278.000 1.000
89.000 279.000 1.000
89.020 285.000 1.000
89.040 289.000 1.000
89.060 302.000 1.000
89.080 294.000 1.000
89.100 317.000 1.000
89.120 287.000 1.000
89.140 289.000 1.000
89.160 294.000 1.000
89.180 306.000 1.000
89.200 293.000 1.000
89.220 320.000 1.000
89.240 349.000 1.000
89.260 341.000 1.000
89.280 311.000 1.000
89.300 338.000 1.000
89.320 355.000 1.000
89.340 360.000 1.000
89.360 349.000 1.000
89.380 318.000 1.000
89.400 364.000 1.000
89.420 330.000 1.000
89.440 315.000 1.000
89.460 313.000 1.000
89.480 310.000 1.000
89.500 301.000 1.000
89.520 306.000 1.000
89.540 303.000 1.000
89.560 305.000 1.000
89.580 326.000 1.000
89.600 329.000 1.000
89.620 306.000 1.000
89.640 306.000 1.000
89.660 323.000 1.000
89.680 283.000 1.000
89.700 305.000 1.000
89.720 283.000 1.000
89.740 290.000 1.000
89.760 295.000 1.000
89.780 313.000 1.000
89.800 308.000 1.000
89.820 323.000 1.000
89.840 312.000 1.000
89.860 283.000 1.000
89.880 294.000 1.000
89.900 297.000 1.000
89.920 284.000 1.000
89.940 340.000 1.000
89.960 320.000 1.000
89.980 281.000 1.000
90.000 287.000 1.000
*RAS_INT_END
*RAS_DATA_END
